14706 14700
1 8.54838758301289e-01 6.76878684969184e-04 -5.98959688645812e-02
2 8.54838758301289e-01 4.92888093626987e-02 -1.02608322085464e-01
3 8.84413882461780e-01 -5.98997934135090e-02 -9.18087563271696e-17
4 9.06786258301289e-01 -1.11210000000000e-01 1.02018520024280e-16
5 9.37777074626414e-01 -5.98986826293897e-02 3.60798246707225e-04
6 9.37972426929464e-01 -1.11209998253931e-01 3.02325037068512e-04
7 9.06786258301289e-01 2.53659521116875e-17 1.11210000000000e-01
8 9.37972426945625e-01 3.02325029590667e-04 1.11209998254073e-01
9 8.84413882457473e-01 -4.98972786702260e-16 5.98997934135090e-02
10 9.37776979168518e-01 3.60523591540844e-04 5.98986240405893e-02
11 8.54838758301289e-01 -4.92888093626987e-02 1.03749753278125e-01
12 8.08783758301289e-01 -4.92888093626987e-02 1.03749753278125e-01
13 8.54838758301289e-01 -6.76878684969191e-04 5.98959688645813e-02
14 8.08783758301289e-01 -6.76878684969191e-04 5.98959688645813e-02
15 8.08783758301289e-01 -4.92888093626987e-02 1.02608322085464e-01
16 8.54838758301289e-01 -4.92888093626987e-02 1.02608322085464e-01
17 8.08783758301289e-01 -6.76878684969191e-04 5.98959688645813e-02
18 8.08783758301289e-01 1.46712180546883e-17 5.98997934135089e-02
19 8.54838758301289e-01 6.84745781585880e-04 5.98958794425431e-02
20 8.54838758301289e-01 1.46712180546883e-17 5.98997934135089e-02
21 8.08783758301289e-01 6.84745781585880e-04 5.98958794425431e-02
22 8.54838758301289e-01 -6.76878684969191e-04 5.98959688645813e-02
23 8.54838758301289e-01 -6.76878684969191e-04 5.98959688645813e-02
24 8.54838758301289e-01 -4.92888093626987e-02 1.02608322085464e-01
25 8.54838758301289e-01 -4.92888093626987e-02 1.03749753278125e-01
26 8.08783758301289e-01 4.92888093626987e-02 -1.02608322085464e-01
27 8.08783758301289e-01 4.92888093626987e-02 -1.03749753278125e-01
28 8.08783758301289e-01 -6.84745781585887e-04 -5.98958794425430e-02
29 8.08783758301289e-01 -6.84745781585887e-04 -5.98958794425430e-02
30 8.54838758301289e-01 -6.84745781585887e-04 -5.98958794425430e-02
31 9.06786258301289e-01 1.11210000000000e-01 1.91771132196319e-18
32 9.37972426929463e-01 1.11209998253931e-01 -3.02325037068608e-04
33 8.84413882461780e-01 5.98997934135089e-02 4.39046043141876e-16
34 9.37777074626405e-01 5.98986826293509e-02 -3.60798246681495e-04
35 8.54838758301289e-01 6.76878684969184e-04 -5.98959688645812e-02
36 8.08783758301289e-01 6.76878684969184e-04 -5.98959688645812e-02
37 8.08783758301289e-01 -4.92888093626987e-02 1.02608322085464e-01
38 8.08783758301289e-01 -4.92888093626987e-02 1.03749753278125e-01
39 8.08783758301289e-01 6.84745781585880e-04 5.98958794425431e-02
40 8.08783758301289e-01 -6.76878684969191e-04 5.98959688645813e-02
41 8.54838758301289e-01 4.92888093626987e-02 -1.02608322085464e-01
42 8.54838758301289e-01 4.92888093626987e-02 -1.03749753278125e-01
43 8.08783758301289e-01 4.92888093626987e-02 -1.03749753278125e-01
44 8.54838758301289e-01 4.92888093626987e-02 -1.03749753278125e-01
45 8.54838758301289e-01 -6.84745781585887e-04 -5.98958794425430e-02
46 8.08783758301289e-01 6.76878684969184e-04 -5.98959688645812e-02
47 8.08783758301289e-01 4.92888093626987e-02 -1.02608322085464e-01
48 8.54838758301289e-01 4.92888093626987e-02 -1.02608322085464e-01
49 9.67996258301289e-01 0.00000000000000e+00 5.98997934135090e-02
50 9.06786258301289e-01 -6.36789035113395e-17 -1.11210000000000e-01
51 9.37972426927107e-01 -3.02325038158699e-04 -1.11209998254073e-01
52 8.84413882455812e-01 3.78699256326404e-17 -5.98997934135089e-02
53 9.37777074622150e-01 -3.60798246424927e-04 -5.98986826294113e-02
54 8.54838758301289e-01 -4.92888093626987e-02 1.03749753278125e-01
55 8.54838758301289e-01 6.84745781585880e-04 5.98958794425431e-02
56 8.54838758301289e-01 7.26680898331659e-04 -6.01214249171859e-02
57 8.54838758301289e-01 7.77436522588174e-04 -6.03466682494252e-02
58 8.54838758301289e-01 8.29144649231221e-04 -6.05716948295240e-02
59 8.54838758301289e-01 8.81804352703880e-04 -6.07965006295873e-02
60 8.54838758301289e-01 9.35414690416317e-04 -6.10210816256717e-02
61 8.54838758301289e-01 9.89974702762693e-04 -6.12454337978579e-02
62 8.54838758301289e-01 1.04548341313835e-03 -6.14695531303225e-02
63 8.54838758301289e-01 1.10193982795725e-03 -6.16934356114096e-02
64 8.54838758301289e-01 1.15934293666980e-03 -6.19170772337030e-02
65 8.54838758301289e-01 1.21769171178093e-03 -6.21404739940979e-02
66 8.54838758301289e-01 1.27698510886846e-03 -6.23636218938724e-02
67 8.54838758301289e-01 1.33722206660184e-03 -6.25865169387588e-02
68 8.54838758301289e-01 1.39840150676110e-03 -6.28091551390159e-02
69 8.54838758301289e-01 1.46052233425619e-03 -6.30315325094996e-02
70 8.54838758301289e-01 1.52358343714655e-03 -6.32536450697346e-02
71 8.54838758301289e-01 1.58758368666104e-03 -6.34754888439858e-02
72 8.54838758301289e-01 1.65252193721813e-03 -6.36970598613290e-02
73 8.54838758301289e-01 1.71839702644639e-03 -6.39183541557224e-02
74 8.54838758301289e-01 1.78520777520534e-03 -6.41393677660775e-02
75 8.54838758301289e-01 1.85295298760651e-03 -6.43600967363297e-02
76 8.54838758301289e-01 1.92163145103487e-03 -6.45805371155098e-02
77 8.54838758301289e-01 1.99124193617054e-03 -6.48006849578137e-02
78 8.54838758301289e-01 2.06178319701078e-03 -6.50205363226741e-02
79 8.54838758301289e-01 2.13325397089228e-03 -6.52400872748303e-02
80 8.54838758301289e-01 2.20565297851382e-03 -6.54593338843989e-02
81 8.54838758301289e-01 2.27897892395909e-03 -6.56782722269442e-02
82 8.54838758301289e-01 2.35323049471994e-03 -6.58968983835483e-02
83 8.54838758301289e-01 2.42840636171986e-03 -6.61152084408812e-02
84 8.54838758301289e-01 2.50450517933778e-03 -6.63331984912713e-02
85 8.54838758301289e-01 2.58152558543212e-03 -6.65508646327747e-02
86 8.54838758301289e-01 2.65946620136522e-03 -6.67682029692455e-02
87 8.54838758301289e-01 2.73832563202796e-03 -6.69852096104053e-02
88 8.54838758301289e-01 2.81810246586481e-03 -6.72018806719130e-02
89 8.54838758301289e-01 2.89879527489901e-03 -6.74182122754342e-02
90 8.54838758301289e-01 2.98040261475821e-03 -6.76342005487109e-02
91 8.54838758301289e-01 3.06292302470026e-03 -6.78498416256302e-02
92 8.54838758301289e-01 3.14635502763939e-03 -6.80651316462941e-02
93 8.54838758301289e-01 3.23069713017264e-03 -6.82800667570885e-02
94 8.54838758301289e-01 3.31594782260660e-03 -6.84946431107518e-02
95 8.54838758301289e-01 3.40210557898442e-03 -6.87088568664442e-02
96 8.54838758301289e-01 3.48916885711314e-03 -6.89227041898163e-02
97 8.54838758301289e-01 3.57713609859126e-03 -6.91361812530775e-02
98 8.54838758301289e-01 3.66600572883670e-03 -6.93492842350650e-02
99 8.54838758301289e-01 3.75577615711491e-03 -6.95620093213117e-02
100 8.54838758301289e-01 3.84644577656738e-03 -6.97743527041147e-02
101 8.54838758301289e-01 3.93801296424042e-03 -6.99863105826037e-02
102 8.54838758301289e-01 4.03047608111420e-03 -7.01978791628086e-02
103 8.54838758301289e-01 4.12383347213202e-03 -7.04090546577275e-02
104 8.54838758301289e-01 4.21808346623007e-03 -7.06198332873949e-02
105 8.54838758301289e-01 4.31322437636718e-03 -7.08302112789486e-02
106 8.54838758301289e-01 4.40925449955521e-03 -7.10401848666981e-02
107 8.54838758301289e-01 4.50617211688932e-03 -7.12497502921915e-02
108 8.54838758301289e-01 4.60397549357890e-03 -7.14589038042825e-02
109 8.54838758301289e-01 4.70266287897855e-03 -7.16676416591984e-02
110 8.54838758301289e-01 4.80223250661943e-03 -7.18759601206064e-02
111 8.54838758301289e-01 4.90268259424089e-03 -7.20838554596805e-02
112 8.54838758301289e-01 5.00401134382236e-03 -7.22913239551688e-02
113 8.54838758301289e-01 5.10621694161550e-03 -7.24983618934595e-02
114 8.54838758301289e-01 5.20929755817677e-03 -7.27049655686476e-02
115 8.54838758301289e-01 5.31325134840004e-03 -7.29111312826016e-02
116 8.54838758301289e-01 5.41807645154972e-03 -7.31168553450288e-02
117 8.54838758301289e-01 5.52377099129404e-03 -7.33221340735424e-02
118 8.54838758301289e-01 5.63033307573860e-03 -7.35269637937266e-02
119 8.54838758301289e-01 5.73776079746027e-03 -7.37313408392029e-02
120 8.54838758301289e-01 5.84605223354132e-03 -7.39352615516953e-02
121 8.54838758301289e-01 5.95520544560384e-03 -7.41387222810962e-02
122 8.54838758301289e-01 6.06521847984447e-03 -7.43417193855314e-02
123 8.54838758301289e-01 6.17608936706931e-03 -7.45442492314255e-02
124 8.54838758301289e-01 6.28781612272919e-03 -7.47463081935668e-02
125 8.54838758301289e-01 6.40039674695523e-03 -7.49478926551724e-02
126 8.54838758301289e-01 6.51382922459458e-03 -7.51489990079525e-02
127 8.54838758301289e-01 6.62811152524655e-03 -7.53496236521755e-02
128 8.54838758301289e-01 6.74324160329891e-03 -7.55497629967321e-02
129 8.54838758301289e-01 6.85921739796452e-03 -7.57494134591999e-02
130 8.54838758301289e-01 6.97603683331818e-03 -7.59485714659071e-02
131 8.54838758301289e-01 7.09369781833389e-03 -7.61472334519966e-02
132 8.54838758301289e-01 7.21219824692215e-03 -7.63453958614902e-02
133 8.54838758301289e-01 7.33153599796778e-03 -7.65430551473517e-02
134 8.54838758301289e-01 7.45170893536776e-03 -7.67402077715508e-02
135 8.54838758301289e-01 7.57271490806961e-03 -7.69368502051260e-02
136 8.54838758301289e-01 7.69455175010975e-03 -7.71329789282484e-02
137 8.54838758301289e-01 7.81721728065237e-03 -7.73285904302839e-02
138 8.54838758301289e-01 7.94070930402843e-03 -7.75236812098569e-02
139 8.54838758301289e-01 8.06502560977495e-03 -7.77182477749123e-02
140 8.54838758301289e-01 8.19016397267462e-03 -7.79122866427783e-02
141 8.54838758301289e-01 8.31612215279557e-03 -7.81057943402286e-02
142 8.54838758301289e-01 8.44289789553151e-03 -7.82987674035449e-02
143 8.54838758301289e-01 8.57048893164207e-03 -7.84912023785784e-02
144 8.54838758301289e-01 8.69889297729343e-03 -7.86830958208121e-02
145 8.54838758301289e-01 8.82810773409917e-03 -7.88744442954220e-02
146 8.54838758301289e-01 8.95813088916145e-03 -7.90652443773391e-02
147 8.54838758301289e-01 9.08896011511238e-03 -7.92554926513102e-02
148 8.54838758301289e-01 9.22059307015570e-03 -7.94451857119595e-02
149 8.54838758301289e-01 9.35302739810868e-03 -7.96343201638490e-02
150 8.54838758301289e-01 9.48626072844429e-03 -7.98228926215399e-02
151 8.54838758301289e-01 9.62029067633367e-03 -8.00108997096528e-02
152 8.54838758301289e-01 9.75511484268878e-03 -8.01983380629281e-02
153 8.54838758301289e-01 9.89073081420534e-03 -8.03852043262865e-02
154 8.54838758301289e-01 1.00271361634061e-02 -8.05714951548889e-02
155 8.54838758301289e-01 1.01643284486841e-02 -8.07572072141960e-02
156 8.54838758301289e-01 1.03023052143466e-02 -8.09423371800288e-02
157 8.54838758301289e-01 1.04410639906590e-02 -8.11268817386269e-02
158 8.54838758301289e-01 1.05806022938889e-02 -8.13108375867091e-02
159 8.54838758301289e-01 1.07209176263507e-02 -8.14942014315315e-02
160 8.54838758301289e-01 1.08620074764501e-02 -8.16769699909470e-02
161 8.54838758301289e-01 1.10038693187295e-02 -8.18591399934640e-02
162 8.54838758301289e-01 1.11465006139127e-02 -8.20407081783045e-02
163 8.54838758301289e-01 1.12898988089506e-02 -8.22216712954632e-02
164 8.54838758301289e-01 1.14340613370668e-02 -8.24020261057651e-02
165 8.54838758301289e-01 1.15789856178039e-02 -8.25817693809238e-02
166 8.54838758301289e-01 1.17246690570691e-02 -8.27608979035989e-02
167 8.54838758301289e-01 1.18711090471810e-02 -8.29394084674542e-02
168 8.54838758301289e-01 1.20183029669163e-02 -8.31172978772145e-02
169 8.54838758301289e-01 1.21662481815566e-02 -8.32945629487231e-02
170 8.54838758301289e-01 1.23149420429355e-02 -8.34712005089988e-02
171 8.54838758301289e-01 1.24643818894862e-02 -8.36472073962925e-02
172 8.54838758301289e-01 1.26145650462890e-02 -8.38225804601440e-02
173 8.54838758301289e-01 1.27654888251192e-02 -8.39973165614383e-02
174 8.54838758301289e-01 1.29171505244952e-02 -8.41714125724618e-02
175 8.54838758301289e-01 1.30695474297270e-02 -8.43448653769582e-02
176 8.54838758301289e-01 1.32226768129646e-02 -8.45176718701846e-02
177 8.54838758301289e-01 1.33765359332468e-02 -8.46898289589666e-02
178 8.54838758301289e-01 1.35311220365506e-02 -8.48613335617540e-02
179 8.54838758301289e-01 1.36864323558400e-02 -8.50321826086760e-02
180 8.54838758301289e-01 1.38424641111161e-02 -8.52023730415956e-02
181 8.54838758301289e-01 1.39992145094663e-02 -8.53719018141652e-02
182 8.54838758301289e-01 1.41566807451146e-02 -8.55407658918806e-02
183 8.54838758301289e-01 1.43148599994719e-02 -8.57089622521352e-02
184 8.54838758301289e-01 1.44737494411862e-02 -8.58764878842744e-02
185 8.54838758301289e-01 1.46333462261934e-02 -8.60433397896494e-02
186 8.54838758301289e-01 1.47936474977682e-02 -8.62095149816710e-02
187 8.54838758301289e-01 1.49546503865753e-02 -8.63750104858628e-02
188 8.54838758301289e-01 1.51163520107207e-02 -8.65398233399144e-02
189 8.54838758301289e-01 1.52787494758033e-02 -8.67039505937349e-02
190 8.54838758301289e-01 1.54418398749666e-02 -8.68673893095053e-02
191 8.54838758301289e-01 1.56056202889510e-02 -8.70301365617310e-02
192 8.54838758301289e-01 1.57700877861456e-02 -8.71921894372947e-02
193 8.54838758301289e-01 1.59352394226413e-02 -8.73535450355078e-02
194 8.54838758301289e-01 1.61010722422828e-02 -8.75142004681631e-02
195 8.54838758301289e-01 1.62675832767223e-02 -8.76741528595857e-02
196 8.54838758301289e-01 1.64347695454717e-02 -8.78333993466853e-02
197 8.54838758301289e-01 1.66026280559568e-02 -8.79919370790067e-02
198 8.54838758301289e-01 1.67711558035705e-02 -8.81497632187815e-02
199 8.54838758301289e-01 1.69403497717263e-02 -8.83068749409781e-02
200 8.54838758301289e-01 1.71102069319130e-02 -8.84632694333531e-02
201 8.54838758301289e-01 1.72807242437482e-02 -8.86189438965011e-02
202 8.54838758301289e-01 1.74518986550330e-02 -8.87738955439050e-02
203 8.54838758301289e-01 1.76237271018070e-02 -8.89281216019858e-02
204 8.54838758301289e-01 1.77962065084025e-02 -8.90816193101524e-02
205 8.54838758301289e-01 1.79693337874998e-02 -8.92343859208508e-02
206 8.54838758301289e-01 1.81431058401828e-02 -8.93864186996134e-02
207 8.54838758301289e-01 1.83175195559939e-02 -8.95377149251078e-02
208 8.54838758301289e-01 1.84925718129901e-02 -8.96882718891860e-02
209 8.54838758301289e-01 1.86682594777988e-02 -8.98380868969322e-02
210 8.54838758301289e-01 1.88445794056738e-02 -8.99871572667113e-02
211 8.54838758301289e-01 1.90215284405513e-02 -9.01354803302173e-02
212 8.54838758301289e-01 1.91991034151073e-02 -9.02830534325205e-02
213 8.54838758301289e-01 1.93773011508132e-02 -9.04298739321151e-02
214 8.54838758301289e-01 1.95561184579934e-02 -9.05759392009668e-02
215 8.54838758301289e-01 1.97355521358821e-02 -9.07212466245598e-02
216 8.54838758301289e-01 1.99155989726810e-02 -9.08657936019431e-02
217 8.54838758301289e-01 2.00962557456160e-02 -9.10095775457776e-02
218 8.54838758301289e-01 2.02775192209958e-02 -9.11525958823823e-02
219 8.54838758301289e-01 2.04593861542689e-02 -9.12948460517802e-02
220 8.54838758301289e-01 2.06418532900825e-02 -9.14363255077442e-02
221 8.54838758301289e-01 2.08249173623403e-02 -9.15770317178429e-02
222 8.54838758301289e-01 2.10085750942609e-02 -9.17169621634853e-02
223 8.54838758301289e-01 2.11928231984368e-02 -9.18561143399667e-02
224 8.54838758301289e-01 2.13776583768929e-02 -9.19944857565130e-02
225 8.54838758301289e-01 2.15630773211456e-02 -9.21320739363254e-02
226 8.54838758301289e-01 2.17490767122625e-02 -9.22688764166248e-02
227 8.54838758301289e-01 2.19356532209210e-02 -9.24048907486959e-02
228 8.54838758301289e-01 2.21228035074684e-02 -9.25401144979307e-02
229 8.54838758301289e-01 2.23105242219818e-02 -9.26745452438727e-02
230 8.54838758301289e-01 2.24988120043274e-02 -9.28081805802597e-02
231 8.54838758301289e-01 2.26876634842217e-02 -9.29410181150669e-02
232 8.54838758301289e-01 2.28770752812906e-02 -9.30730554705503e-02
233 8.54838758301289e-01 2.30670440051309e-02 -9.32042902832883e-02
234 8.54838758301289e-01 2.32575662553706e-02 -9.33347202042249e-02
235 8.54838758301289e-01 2.34486386217296e-02 -9.34643428987113e-02
236 8.54838758301289e-01 2.36402576840810e-02 -9.35931560465475e-02
237 8.54838758301289e-01 2.38324200125122e-02 -9.37211573420245e-02
238 8.54838758301289e-01 2.40251221673865e-02 -9.38483444939650e-02
239 8.54838758301289e-01 2.42183606994043e-02 -9.39747152257644e-02
240 8.54838758301289e-01 2.44121321496651e-02 -9.41002672754320e-02
241 8.54838758301289e-01 2.46064330497294e-02 -9.42249983956310e-02
242 8.54838758301289e-01 2.48012599216808e-02 -9.43489063537192e-02
243 8.54838758301289e-01 2.49966092781879e-02 -9.44719889317884e-02
244 8.54838758301289e-01 2.51924776225674e-02 -9.45942439267046e-02
245 8.54838758301289e-01 2.53888614488460e-02 -9.47156691501471e-02
246 8.54838758301289e-01 2.55857572418237e-02 -9.48362624286482e-02
247 8.54838758301289e-01 2.57831614771362e-02 -9.49560216036311e-02
248 8.54838758301289e-01 2.59810706213185e-02 -9.50749445314497e-02
249 8.54838758301289e-01 2.61794811318678e-02 -9.51930290834260e-02
250 8.54838758301289e-01 2.63783894573072e-02 -9.53102731458891e-02
251 8.54838758301289e-01 2.65777920372487e-02 -9.54266746202120e-02
252 8.54838758301289e-01 2.67776853024578e-02 -9.55422314228502e-02
253 8.54838758301289e-01 2.69780656749166e-02 -9.56569414853784e-02
254 8.54838758301289e-01 2.71789295678881e-02 -9.57708027545273e-02
255 8.54838758301289e-01 2.73802733859808e-02 -9.58838131922213e-02
256 8.54838758301289e-01 2.75820935252124e-02 -9.59959707756139e-02
257 8.54838758301289e-01 2.77843863730747e-02 -9.61072734971246e-02
258 8.54838758301289e-01 2.79871483085982e-02 -9.62177193644744e-02
259 8.54838758301289e-01 2.81903757024170e-02 -9.63273064007221e-02
260 8.54838758301289e-01 2.83940649168334e-02 -9.64360326442989e-02
261 8.54838758301289e-01 2.85982123058837e-02 -9.65438961490439e-02
262 8.54838758301289e-01 2.88028142154026e-02 -9.66508949842392e-02
263 8.54838758301289e-01 2.90078669830892e-02 -9.67570272346439e-02
264 8.54838758301289e-01 2.92133669385726e-02 -9.68622910005287e-02
265 8.54838758301289e-01 2.94193104034771e-02 -9.69666843977099e-02
266 8.54838758301289e-01 2.96256936914884e-02 -9.70702055575833e-02
267 8.54838758301289e-01 2.98325131084198e-02 -9.71728526271570e-02
268 8.54838758301289e-01 3.00397649522778e-02 -9.72746237690853e-02
269 8.54838758301289e-01 3.02474455133285e-02 -9.73755171617013e-02
270 8.54838758301289e-01 3.04555510741645e-02 -9.74755309990493e-02
271 8.54838758301289e-01 3.06640779097706e-02 -9.75746634909176e-02
272 8.54838758301289e-01 3.08730222875913e-02 -9.76729128628699e-02
273 8.54838758301289e-01 3.10823804675971e-02 -9.77702773562779e-02
274 8.54838758301289e-01 3.12921487023515e-02 -9.78667552283519e-02
275 8.54838758301289e-01 3.15023232370783e-02 -9.79623447521726e-02
276 8.54838758301289e-01 3.17129003097287e-02 -9.80570442167217e-02
277 8.54838758301289e-01 3.19238761510486e-02 -9.81508519269129e-02
278 8.54838758301289e-01 3.21352469846458e-02 -9.82437662036216e-02
279 8.54838758301289e-01 3.23470090270584e-02 -9.83357853837157e-02
280 8.54838758301289e-01 3.25591584878215e-02 -9.84269078200847e-02
281 8.54838758301289e-01 3.27716915695359e-02 -9.85171318816697e-02
282 8.54838758301289e-01 3.29846044679355e-02 -9.86064559534924e-02
283 8.54838758301289e-01 3.31978933719558e-02 -9.86948784366838e-02
284 8.54838758301289e-01 3.34115544638018e-02 -9.87823977485133e-02
285 8.54838758301289e-01 3.36255839190165e-02 -9.88690123224164e-02
286 8.54838758301289e-01 3.38399779065494e-02 -9.89547206080233e-02
287 8.54838758301289e-01 3.40547325888248e-02 -9.90395210711865e-02
288 8.54838758301289e-01 3.42698441218110e-02 -9.91234121940080e-02
289 8.54838758301289e-01 3.44853086550885e-02 -9.92063924748667e-02
290 8.54838758301289e-01 3.47011223319195e-02 -9.92884604284455e-02
291 8.54838758301289e-01 3.49172812893164e-02 -9.93696145857573e-02
292 8.54838758301289e-01 3.51337816581114e-02 -9.94498534941718e-02
293 8.54838758301289e-01 3.53506195630254e-02 -9.95291757174413e-02
294 8.54838758301289e-01 3.55677911227377e-02 -9.96075798357264e-02
295 8.54838758301289e-01 3.57852924499551e-02 -9.96850644456214e-02
296 8.54838758301289e-01 3.60031196514818e-02 -9.97616281601798e-02
297 8.54838758301289e-01 3.62212688282889e-02 -9.98372696089382e-02
298 8.54838758301289e-01 3.64397360755844e-02 -9.99119874379421e-02
299 8.54838758301289e-01 3.66585174828828e-02 -9.99857803097689e-02
300 8.54838758301289e-01 3.68776091340753e-02 -1.00058646903553e-01
301 8.54838758301289e-01 3.70970071074998e-02 -1.00130585915008e-01
302 8.54838758301289e-01 3.73167074760113e-02 -1.00201596056451e-01
303 8.54838758301289e-01 3.75367063070519e-02 -1.00271676056827e-01
304 8.54838758301289e-01 3.77569996627213e-02 -1.00340824661729e-01
305 8.54838758301289e-01 3.79775835998474e-02 -1.00409040633421e-01
306 8.54838758301289e-01 3.81984541700567e-02 -1.00476322750861e-01
307 8.54838758301289e-01 3.84196074198453e-02 -1.00542669809725e-01
308 8.54838758301289e-01 3.86410393906491e-02 -1.00608080622424e-01
309 8.54838758301289e-01 3.88627461189152e-02 -1.00672554018126e-01
310 8.54838758301289e-01 3.90847236361727e-02 -1.00736088842783e-01
311 8.54838758301289e-01 3.93069679691034e-02 -1.00798683959142e-01
312 8.54838758301289e-01 3.95294751396136e-02 -1.00860338246775e-01
313 8.54838758301289e-01 3.97522411649045e-02 -1.00921050602091e-01
314 8.54838758301289e-01 3.99752620575441e-02 -1.00980819938361e-01
315 8.54838758301289e-01 4.01985338255384e-02 -1.01039645185735e-01
316 8.54838758301289e-01 4.04220524724028e-02 -1.01097525291262e-01
317 8.54838758301289e-01 4.06458139972334e-02 -1.01154459218910e-01
318 8.54838758301289e-01 4.08698143947793e-02 -1.01210445949580e-01
319 8.54838758301289e-01 4.10940496555135e-02 -1.01265484481132e-01
320 8.54838758301289e-01 4.13185157657052e-02 -1.01319573828395e-01
321 8.54838758301289e-01 4.15432087074916e-02 -1.01372713023188e-01
322 8.54838758301289e-01 4.17681244589494e-02 -1.01424901114340e-01
323 8.54838758301289e-01 4.19932589941673e-02 -1.01476137167702e-01
324 8.54838758301289e-01 4.22186082833178e-02 -1.01526420266168e-01
325 8.54838758301289e-01 4.24441682927293e-02 -1.01575749509687e-01
326 8.54838758301289e-01 4.26699349849585e-02 -1.01624124015285e-01
327 8.54838758301289e-01 4.28959043188625e-02 -1.01671542917074e-01
328 8.54838758301289e-01 4.31220722496712e-02 -1.01718005366273e-01
329 8.54838758301289e-01 4.33484347290597e-02 -1.01763510531222e-01
330 8.54838758301289e-01 4.35749877052207e-02 -1.01808057597394e-01
331 8.54838758301289e-01 4.38017271229371e-02 -1.01851645767412e-01
332 8.54838758301289e-01 4.40286489236546e-02 -1.01894274261064e-01
333 8.54838758301289e-01 4.42557490455543e-02 -1.01935942315315e-01
334 8.54838758301289e-01 4.44830234236252e-02 -1.01976649184323e-01
335 8.54838758301289e-01 4.47104679897376e-02 -1.02016394139447e-01
336 8.54838758301289e-01 4.49380786727152e-02 -1.02055176469269e-01
337 8.54838758301289e-01 4.51658513984082e-02 -1.02092995479598e-01
338 8.54838758301289e-01 4.53937820897666e-02 -1.02129850493488e-01
339 8.54838758301289e-01 4.56218666669127e-02 -1.02165740851246e-01
340 8.54838758301289e-01 4.58501010472141e-02 -1.02200665910449e-01
341 8.54838758301289e-01 4.60784811453573e-02 -1.02234625045950e-01
342 8.54838758301289e-01 4.63070028734205e-02 -1.02267617649894e-01
343 8.54838758301289e-01 4.65356621409464e-02 -1.02299643131723e-01
344 8.54838758301289e-01 4.67644548550162e-02 -1.02330700918195e-01
345 8.54838758301289e-01 4.69933769203222e-02 -1.02360790453384e-01
346 8.54838758301289e-01 4.72224242392416e-02 -1.02389911198700e-01
347 8.54838758301289e-01 4.74515927119094e-02 -1.02418062632892e-01
348 8.54838758301289e-01 4.76808782362920e-02 -1.02445244252058e-01
349 8.54838758301289e-01 4.79102767082607e-02 -1.02471455569658e-01
350 8.54838758301289e-01 4.81397840216650e-02 -1.02496696116519e-01
351 8.54838758301289e-01 4.83693960684064e-02 -1.02520965440844e-01
352 8.54838758301289e-01 4.85991087385113e-02 -1.02544263108220e-01
353 8.54838758301289e-01 4.88289179202054e-02 -1.02566588701628e-01
354 8.54838758301289e-01 4.90588194999866e-02 -1.02587941821447e-01
355 8.84488457047926e-01 -6.00708274354574e-02 -9.10609441087786e-17
356 8.84563031634073e-01 -6.02418614574057e-02 -9.03101952358724e-17
357 8.84637606220220e-01 -6.04128954793541e-02 -8.95565461237936e-17
358 8.84712180806366e-01 -6.05839295013025e-02 -8.88000331878845e-17
359 8.84786755392513e-01 -6.07549635232510e-02 -8.80406928434876e-17
360 8.84861329978660e-01 -6.09259975451994e-02 -8.72785615059455e-17
361 8.84935904564806e-01 -6.10970315671479e-02 -8.65136755906006e-17
362 8.85010479150953e-01 -6.12680655890964e-02 -8.57460715127953e-17
363 8.85085053737099e-01 -6.14390996110450e-02 -8.49757856878723e-17
364 8.85159628323245e-01 -6.16101336329935e-02 -8.42028545311739e-17
365 8.85234202909392e-01 -6.17811676549421e-02 -8.34273144580426e-17
366 8.85308777495538e-01 -6.19522016768907e-02 -8.26492018838210e-17
367 8.85383352081684e-01 -6.21232356988393e-02 -8.18685532238515e-17
368 8.85457926667831e-01 -6.22942697207879e-02 -8.10854048934765e-17
369 8.85532501253977e-01 -6.24653037427366e-02 -8.02997933080386e-17
370 8.85607075840123e-01 -6.26363377646853e-02 -7.95117548828803e-17
371 8.85681650426269e-01 -6.28073717866340e-02 -7.87213260333440e-17
372 8.85756225012415e-01 -6.29784058085828e-02 -7.79285431747723e-17
373 8.85830799598561e-01 -6.31494398305315e-02 -7.71334427225075e-17
374 8.85905374184707e-01 -6.33204738524803e-02 -7.63360610918922e-17
375 8.85979948770852e-01 -6.34915078744291e-02 -7.55364346982689e-17
376 8.86054523356998e-01 -6.36625418963780e-02 -7.47345999569800e-17
377 8.86129097943144e-01 -6.38335759183268e-02 -7.39305932833680e-17
378 8.86203672529289e-01 -6.40046099402758e-02 -7.31244510927755e-17
379 8.86278247115435e-01 -6.41756439622247e-02 -7.23162098005448e-17
380 8.86352821701581e-01 -6.43466779841736e-02 -7.15059058220185e-17
381 8.86427396287726e-01 -6.45177120061226e-02 -7.06935755725391e-17
382 8.86501970873871e-01 -6.46887460280716e-02 -6.98792554674490e-17
383 8.86576545460017e-01 -6.48597800500206e-02 -6.90629819220908e-17
384 8.86651120046162e-01 -6.50308140719697e-02 -6.82447913518068e-17
385 8.86725694632307e-01 -6.52018480939188e-02 -6.74247201719396e-17
386 8.86800269218452e-01 -6.53728821158679e-02 -6.66028047978317e-17
387 8.86874843804597e-01 -6.55439161378170e-02 -6.57790816448256e-17
388 8.86949418390742e-01 -6.57149501597662e-02 -6.49535871282637e-17
389 8.87023992976887e-01 -6.58859841817154e-02 -6.41263576634885e-17
390 8.87098567563032e-01 -6.60570182036646e-02 -6.32974296658425e-17
391 8.87173142149177e-01 -6.62280522256139e-02 -6.24668395506681e-17
392 8.87247716735322e-01 -6.63990862475631e-02 -6.16346237333080e-17
393 8.87322291321466e-01 -6.65701202695125e-02 -6.08008186291045e-17
394 8.87396865907611e-01 -6.67411542914618e-02 -5.99654606534001e-17
395 8.87471440493755e-01 -6.69121883134112e-02 -5.91285862215373e-17
396 8.87546015079900e-01 -6.70832223353606e-02 -5.82902317488586e-17
397 8.87620589666044e-01 -6.72542563573100e-02 -5.74504336507065e-17
398 8.87695164252189e-01 -6.74252903792595e-02 -5.66092283424235e-17
399 8.87769738838333e-01 -6.75963244012090e-02 -5.57666522393520e-17
400 8.87844313424477e-01 -6.77673584231585e-02 -5.49227417568345e-17
401 8.87918888010621e-01 -6.79383924451080e-02 -5.40775333102135e-17
402 8.87993462596765e-01 -6.81094264670576e-02 -5.32310633148315e-17
403 8.88068037182909e-01 -6.82804604890073e-02 -5.23833681860310e-17
404 8.88142611769053e-01 -6.84514945109569e-02 -5.15344843391544e-17
405 8.88217186355197e-01 -6.86225285329066e-02 -5.06844481895443e-17
406 8.88291760941340e-01 -6.87935625548563e-02 -4.98332961525431e-17
407 8.88366335527484e-01 -6.89645965768061e-02 -4.89810646434932e-17
408 8.88440910113628e-01 -6.91356305987559e-02 -4.81277900777373e-17
409 8.88515484699771e-01 -6.93066646207057e-02 -4.72735088706177e-17
410 8.88590059285915e-01 -6.94776986426555e-02 -4.64182574374770e-17
411 8.88664633872058e-01 -6.96487326646054e-02 -4.55620721936576e-17
412 8.88739208458201e-01 -6.98197666865553e-02 -4.47049895545020e-17
413 8.88813783044344e-01 -6.99908007085053e-02 -4.38470459353527e-17
414 8.88888357630487e-01 -7.01618347304553e-02 -4.29882777515521e-17
415 8.88962932216631e-01 -7.03328687524053e-02 -4.21287214184429e-17
416 8.89037506802773e-01 -7.05039027743554e-02 -4.12684133513673e-17
417 8.89112081388916e-01 -7.06749367963055e-02 -4.04073899656680e-17
418 8.89186655975059e-01 -7.08459708182556e-02 -3.95456876766874e-17
419 8.89261230561202e-01 -7.10170048402058e-02 -3.86833428997680e-17
420 8.89335805147344e-01 -7.11880388621560e-02 -3.78203920502523e-17
421 8.89410379733487e-01 -7.13590728841062e-02 -3.69568715434827e-17
422 8.89484954319629e-01 -7.15301069060565e-02 -3.60928177948017e-17
423 8.89559528905772e-01 -7.17011409280068e-02 -3.52282672195519e-17
424 8.89634103491914e-01 -7.18721749499571e-02 -3.43632562330757e-17
425 8.89708678078056e-01 -7.20432089719075e-02 -3.34978212507155e-17
426 8.89783252664198e-01 -7.22142429938579e-02 -3.26319986878139e-17
427 8.89857827250340e-01 -7.23852770158084e-02 -3.17658249597133e-17
428 8.89932401836482e-01 -7.25563110377589e-02 -3.08993364817563e-17
429 8.90006976422624e-01 -7.27273450597094e-02 -3.00325696692853e-17
430 8.90081551008766e-01 -7.28983790816600e-02 -2.91655609376428e-17
431 8.90156125594908e-01 -7.30694131036106e-02 -2.82983467021712e-17
432 8.90230700181049e-01 -7.32404471255613e-02 -2.74309633782132e-17
433 8.90305274767191e-01 -7.34114811475119e-02 -2.65634473811110e-17
434 8.90379849353332e-01 -7.35825151694627e-02 -2.56958351262073e-17
435 8.90454423939474e-01 -7.37535491914134e-02 -2.48281630288445e-17
436 8.90528998525615e-01 -7.39245832133643e-02 -2.39604675043650e-17
437 8.90603573111756e-01 -7.40956172353151e-02 -2.30927849681115e-17
438 8.90678147697897e-01 -7.42666512572660e-02 -2.22251518354263e-17
439 8.90752722284038e-01 -7.44376852792169e-02 -2.13576045216519e-17
440 8.90827296870179e-01 -7.46087193011679e-02 -2.04901794421308e-17
441 8.90901871456320e-01 -7.47797533231189e-02 -1.96229130122056e-17
442 8.90976446042460e-01 -7.49507873450699e-02 -1.87558416472186e-17
443 8.91051020628601e-01 -7.51218213670210e-02 -1.78890017625124e-17
444 8.91125595214741e-01 -7.52928553889722e-02 -1.70224297734294e-17
445 8.91200169800882e-01 -7.54638894109233e-02 -1.61561620953122e-17
446 8.91274744387022e-01 -7.56349234328746e-02 -1.52902351435031e-17
447 8.91349318973162e-01 -7.58059574548258e-02 -1.44246853333448e-17
448 8.91423893559302e-01 -7.59769914767771e-02 -1.35595490801797e-17
449 8.91498468145442e-01 -7.61480254987285e-02 -1.26948627993502e-17
450 8.91573042731582e-01 -7.63190595206799e-02 -1.18306629061988e-17
451 8.91647617317722e-01 -7.64900935426313e-02 -1.09669858160681e-17
452 8.91722191903862e-01 -7.66611275645828e-02 -1.01038679443004e-17
453 8.91796766490001e-01 -7.68321615865343e-02 -9.24134570623839e-18
454 8.91871341076141e-01 -7.70031956084859e-02 -8.37945551722442e-18
455 8.91945915662280e-01 -7.71742296304375e-02 -7.51823379260100e-18
456 8.92020490248419e-01 -7.73452636523891e-02 -6.65771694771061e-18
457 8.92095064834559e-01 -7.75162976743408e-02 -5.79794139789575e-18
458 8.92169639420698e-01 -7.76873316962925e-02 -4.93894355849888e-18
459 8.92244214006837e-01 -7.78583657182443e-02 -4.08075984486247e-18
460 8.92318788592976e-01 -7.80293997401962e-02 -3.22342667232905e-18
461 8.92393363179114e-01 -7.82004337621480e-02 -2.36698045624109e-18
462 8.92467937765253e-01 -7.83714677841000e-02 -1.51145761194103e-18
463 8.92542512351392e-01 -7.85425018060519e-02 -6.56894554771391e-19
464 8.92617086937530e-01 -7.87135358280039e-02 1.96672299925353e-19
465 8.92691661523669e-01 -7.88845698499560e-02 1.04920653680671e-18
466 8.92766236109807e-01 -7.90556038719081e-02 1.90067174053021e-18
467 8.92840810695945e-01 -7.92266378938603e-02 2.75103149575339e-18
468 8.92915385282083e-01 -7.93976719158125e-02 3.60024938713373e-18
469 8.92989959868221e-01 -7.95687059377647e-02 4.44828899932877e-18
470 8.93064534454359e-01 -7.97397399597170e-02 5.29511391699602e-18
471 8.93139109040496e-01 -7.99107739816694e-02 6.14068772479303e-18
472 8.93213683626634e-01 -8.00818080036217e-02 6.98497400737724e-18
473 8.93288258212771e-01 -8.02528420255742e-02 7.82793634940623e-18
474 8.93362832798909e-01 -8.04238760475267e-02 8.66953833553751e-18
475 8.93437407385046e-01 -8.05949100694792e-02 9.50974355042858e-18
476 8.93511981971183e-01 -8.07659440914318e-02 1.03485155787370e-17
477 8.93586556557320e-01 -8.09369781133844e-02 1.11858180051202e-17
478 8.93661131143457e-01 -8.11080121353371e-02 1.20216144142358e-17
479 8.93735705729594e-01 -8.12790461572899e-02 1.28558683907412e-17
480 8.93810280315731e-01 -8.14500801792427e-02 1.36885435192941e-17
481 8.93884854901867e-01 -8.16211142011955e-02 1.45196033845518e-17
482 8.93959429488004e-01 -8.17921482231484e-02 1.53490115711720e-17
483 8.94034004074140e-01 -8.19631822451013e-02 1.61767316638121e-17
484 8.94108578660276e-01 -8.21342162670543e-02 1.70027272471297e-17
485 8.94183153246413e-01 -8.23052502890074e-02 1.78269619057823e-17
486 8.94257727832548e-01 -8.24762843109604e-02 1.86493992244273e-17
487 8.94332302418684e-01 -8.26473183329136e-02 1.94700027877224e-17
488 8.94406877004820e-01 -8.28183523548668e-02 2.02887361803250e-17
489 8.94481451590956e-01 -8.29893863768200e-02 2.11055629868926e-17
490 8.94556026177091e-01 -8.31604203987733e-02 2.19204467920828e-17
491 8.94630600763227e-01 -8.33314544207267e-02 2.27333511805531e-17
492 8.94705175349362e-01 -8.35024884426801e-02 2.35442397369609e-17
493 8.94779749935497e-01 -8.36735224646335e-02 2.43530760459639e-17
494 8.94854324521632e-01 -8.38445564865871e-02 2.51598236922196e-17
495 8.94928899107767e-01 -8.40155905085406e-02 2.59644462603854e-17
496 8.95003473693902e-01 -8.41866245304942e-02 2.67669073351188e-17
497 8.95078048280036e-01 -8.43576585524479e-02 2.75671705010775e-17
498 8.95152622866171e-01 -8.45286925744016e-02 2.83651993429188e-17
499 8.95227197452305e-01 -8.46997265963554e-02 2.91609574453004e-17
500 8.95301772038440e-01 -8.48707606183093e-02 2.99544083928797e-17
501 8.95376346624574e-01 -8.50417946402632e-02 3.07455157703143e-17
502 8.95450921210708e-01 -8.52128286622171e-02 3.15342431622616e-17
503 8.95525495796842e-01 -8.53838626841711e-02 3.23205541533793e-17
504 8.95600070382976e-01 -8.55548967061251e-02 3.31044123283247e-17
505 8.95674644969109e-01 -8.57259307280793e-02 3.38857812717555e-17
506 8.95749219555243e-01 -8.58969647500334e-02 3.46646245683292e-17
507 8.95823794141376e-01 -8.60679987719877e-02 3.54409058027032e-17
508 8.95898368727509e-01 -8.62390327939419e-02 3.62145885595350e-17
509 8.95972943313643e-01 -8.64100668158963e-02 3.69856364234823e-17
510 8.96047517899776e-01 -8.65811008378507e-02 3.77540129792025e-17
511 8.96122092485908e-01 -8.67521348598051e-02 3.85196818113532e-17
512 8.96196667072041e-01 -8.69231688817596e-02 3.92826065045917e-17
513 8.96271241658174e-01 -8.70942029037142e-02 4.00427506435758e-17
514 8.96345816244306e-01 -8.72652369256688e-02 4.08000778129629e-17
515 8.96420390830439e-01 -8.74362709476235e-02 4.15545515974104e-17
516 8.96494965416571e-01 -8.76073049695783e-02 4.23061355815760e-17
517 8.96569540002703e-01 -8.77783389915331e-02 4.30547933501171e-17
518 8.96644114588835e-01 -8.79493730134879e-02 4.38004884876913e-17
519 8.96718689174967e-01 -8.81204070354429e-02 4.45431845789560e-17
520 8.96793263761098e-01 -8.82914410573978e-02 4.52828452085689e-17
521 8.96867838347230e-01 -8.84624750793529e-02 4.60194339611873e-17
522 8.96942412933361e-01 -8.86335091013080e-02 4.67529144214689e-17
523 8.97016987519492e-01 -8.88045431232631e-02 4.74832501740711e-17
524 8.97091562105624e-01 -8.89755771452184e-02 4.82104048036516e-17
525 8.97166136691754e-01 -8.91466111671736e-02 4.89343418948676e-17
526 8.97240711277885e-01 -8.93176451891290e-02 4.96550250323769e-17
527 8.97315285864016e-01 -8.94886792110844e-02 5.03724178008369e-17
528 8.97389860450147e-01 -8.96597132330398e-02 5.10864837849051e-17
529 8.97464435036277e-01 -8.98307472549954e-02 5.17971865692391e-17
530 8.97539009622407e-01 -9.00017812769510e-02 5.25044897384964e-17
531 8.97613584208537e-01 -9.01728152989066e-02 5.32083568773344e-17
532 8.97688158794667e-01 -9.03438493208623e-02 5.39087515704107e-17
533 8.97762733380797e-01 -9.05148833428181e-02 5.46056374023829e-17
534 8.97837307966927e-01 -9.06859173647739e-02 5.52989779579084e-17
535 8.97911882553057e-01 -9.08569513867298e-02 5.59887368216448e-17
536 8.97986457139186e-01 -9.10279854086858e-02 5.66748775782495e-17
537 8.98061031725315e-01 -9.11990194306418e-02 5.73573638123802e-17
538 8.98135606311444e-01 -9.13700534525979e-02 5.80361591086942e-17
539 8.98210180897573e-01 -9.15410874745540e-02 5.87112270518492e-17
540 8.98284755483702e-01 -9.17121214965103e-02 5.93825312265026e-17
541 8.98359330069831e-01 -9.18831555184665e-02 6.00500352173120e-17
542 8.98433904655959e-01 -9.20541895404229e-02 6.07137026089349e-17
543 8.98508479242088e-01 -9.22252235623793e-02 6.13734969860288e-17
544 8.98583053828216e-01 -9.23962575843358e-02 6.20293819332511e-17
545 8.98657628414344e-01 -9.25672916062923e-02 6.26813210352596e-17
546 8.98732203000472e-01 -9.27383256282489e-02 6.33292778767116e-17
547 8.98806777586600e-01 -9.29093596502056e-02 6.39732160422646e-17
548 8.98881352172727e-01 -9.30803936721623e-02 6.46130991165762e-17
549 8.98955926758855e-01 -9.32514276941191e-02 6.52488906843040e-17
550 8.99030501344982e-01 -9.34224617160760e-02 6.58805543301053e-17
551 8.99105075931109e-01 -9.35934957380330e-02 6.65080536386378e-17
552 8.99179650517236e-01 -9.37645297599899e-02 6.71313521945590e-17
553 8.99254225103363e-01 -9.39355637819470e-02 6.77504135825263e-17
554 8.99328799689490e-01 -9.41065978039042e-02 6.83652013871973e-17
555 8.99403374275616e-01 -9.42776318258614e-02 6.89756791932296e-17
556 8.99477948861743e-01 -9.44486658478186e-02 6.95818105852805e-17
557 8.99552523447869e-01 -9.46196998697760e-02 7.01835591480078e-17
558 8.99627098033995e-01 -9.47907338917334e-02 7.07808884660687e-17
559 8.99701672620121e-01 -9.49617679136909e-02 7.13737621241210e-17
560 8.99776247206247e-01 -9.51328019356484e-02 7.19621437068221e-17
561 8.99850821792373e-01 -9.53038359576061e-02 7.25459967988295e-17
562 8.99925396378498e-01 -9.54748699795637e-02 7.31252849848007e-17
563 8.99999970964623e-01 -9.56459040015215e-02 7.36999718493932e-17
564 9.00074545550748e-01 -9.58169380234793e-02 7.42700209772647e-17
565 9.00149120136873e-01 -9.59879720454372e-02 7.48353959530725e-17
566 9.00223694722998e-01 -9.61590060673952e-02 7.53960603614742e-17
567 9.00298269309123e-01 -9.63300400893532e-02 7.59519777871273e-17
568 9.00372843895247e-01 -9.65010741113113e-02 7.65031118146895e-17
569 9.00447418481372e-01 -9.66721081332695e-02 7.70494260288180e-17
570 9.00521993067496e-01 -9.68431421552277e-02 7.75908840141705e-17
571 9.00596567653620e-01 -9.70141761771861e-02 7.81274493554045e-17
572 9.00671142239744e-01 -9.71852101991445e-02 7.86590856371775e-17
573 9.00745716825867e-01 -9.73562442211029e-02 7.91857564441471e-17
574 9.00820291411991e-01 -9.75272782430615e-02 7.97074253609707e-17
575 9.00894865998114e-01 -9.76983122650201e-02 8.02240559723059e-17
576 9.00969440584237e-01 -9.78693462869787e-02 8.07356118628101e-17
577 9.01044015170360e-01 -9.80403803089375e-02 8.12420566171410e-17
578 9.01118589756483e-01 -9.82114143308963e-02 8.17433538199559e-17
579 9.01193164342606e-01 -9.83824483528552e-02 8.22394670559125e-17
580 9.01267738928728e-01 -9.85534823748142e-02 8.27303599096683e-17
581 9.01342313514851e-01 -9.87245163967733e-02 8.32159959658807e-17
582 9.01416888100973e-01 -9.88955504187324e-02 8.36963388092073e-17
583 9.01491462687095e-01 -9.90665844406916e-02 8.41713520243056e-17
584 9.01566037273217e-01 -9.92376184626508e-02 8.46409991958331e-17
585 9.01640611859338e-01 -9.94086524846102e-02 8.51052439084474e-17
586 9.01715186445460e-01 -9.95796865065696e-02 8.55640497468059e-17
587 9.01789761031581e-01 -9.97507205285291e-02 8.60173802955662e-17
588 9.01864335617702e-01 -9.99217545504887e-02 8.64651991393859e-17
589 9.01938910203823e-01 -1.00092788572448e-01 8.69074698629223e-17
590 9.02013484789944e-01 -1.00263822594408e-01 8.73441560508330e-17
591 9.02088059376065e-01 -1.00434856616368e-01 8.77752212877756e-17
592 9.02162633962185e-01 -1.00605890638328e-01 8.82006291584075e-17
593 9.02237208548305e-01 -1.00776924660288e-01 8.86203432473863e-17
594 9.02311783134426e-01 -1.00947958682248e-01 8.90343271393696e-17
595 9.02386357720545e-01 -1.01118992704208e-01 8.94425444190147e-17
596 9.02460932306665e-01 -1.01290026726168e-01 8.98449586709793e-17
597 9.02535506892785e-01 -1.01461060748128e-01 9.02415334799208e-17
598 9.02610081478904e-01 -1.01632094770089e-01 9.06322324304968e-17
599 9.02684656065023e-01 -1.01803128792049e-01 9.10170191073648e-17
600 9.02759230651142e-01 -1.01974162814009e-01 9.13958570951823e-17
601 9.02833805237261e-01 -1.02145196835970e-01 9.17687099786068e-17
602 9.02908379823380e-01 -1.02316230857931e-01 9.21355413422959e-17
603 9.02982954409498e-01 -1.02487264879891e-01 9.24963147709070e-17
604 9.03057528995617e-01 -1.02658298901852e-01 9.28509938490977e-17
605 9.03132103581735e-01 -1.02829332923813e-01 9.31995421615254e-17
606 9.03206678167853e-01 -1.03000366945774e-01 9.35419232928478e-17
607 9.03281252753970e-01 -1.03171400967735e-01 9.38781008277223e-17
608 9.03355827340088e-01 -1.03342434989696e-01 9.42080383508065e-17
609 9.03430401926205e-01 -1.03513469011657e-01 9.45316994467578e-17
610 9.03504976512323e-01 -1.03684503033619e-01 9.48490477002338e-17
611 9.03579551098440e-01 -1.03855537055580e-01 9.51600466958920e-17
612 9.03654125684556e-01 -1.04026571077542e-01 9.54646600183900e-17
613 9.03728700270673e-01 -1.04197605099503e-01 9.57628512523851e-17
614 9.03803274856790e-01 -1.04368639121465e-01 9.60545839825350e-17
615 9.03877849442906e-01 -1.04539673143426e-01 9.63398217934972e-17
616 9.03952424029022e-01 -1.04710707165388e-01 9.66185282699292e-17
617 9.04026998615138e-01 -1.04881741187350e-01 9.68906669964884e-17
618 9.04101573201254e-01 -1.05052775209312e-01 9.71562015578325e-17
619 9.04176147787369e-01 -1.05223809231274e-01 9.74150955386190e-17
620 9.04250722373484e-01 -1.05394843253236e-01 9.76673125235053e-17
621 9.04325296959600e-01 -1.05565877275198e-01 9.79128160971489e-17
622 9.04399871545714e-01 -1.05736911297161e-01 9.81515698442074e-17
623 9.04474446131829e-01 -1.05907945319123e-01 9.83835373493384e-17
624 9.04549020717944e-01 -1.06078979341085e-01 9.86086821971993e-17
625 9.04623595304058e-01 -1.06250013363048e-01 9.88269679724477e-17
626 9.04698169890172e-01 -1.06421047385010e-01 9.90383582597409e-17
627 9.04772744476286e-01 -1.06592081406973e-01 9.92428166437367e-17
628 9.04847319062400e-01 -1.06763115428936e-01 9.94403067090925e-17
629 9.04921893648514e-01 -1.06934149450899e-01 9.96307920404658e-17
630 9.04996468234627e-01 -1.07105183472862e-01 9.98142362225141e-17
631 9.05071042820740e-01 -1.07276217494825e-01 9.99906028398950e-17
632 9.05145617406853e-01 -1.07447251516788e-01 1.00159855477266e-16
633 9.05220191992966e-01 -1.07618285538751e-01 1.00321957719284e-16
634 9.05294766579079e-01 -1.07789319560714e-01 1.00476873150608e-16
635 9.05369341165191e-01 -1.07960353582678e-01 1.00624565355894e-16
636 9.05443915751303e-01 -1.08131387604641e-01 1.00764997919801e-16
637 9.05518490337415e-01 -1.08302421626605e-01 1.00898134426985e-16
638 9.05593064923527e-01 -1.08473455648568e-01 1.01023938462104e-16
639 9.05667639509639e-01 -1.08644489670532e-01 1.01142373609816e-16
640 9.05742214095750e-01 -1.08815523692496e-01 1.01253403454778e-16
641 9.05816788681861e-01 -1.08986557714460e-01 1.01356991581648e-16
642 9.05891363267972e-01 -1.09157591736424e-01 1.01453101575083e-16
643 9.05965937854083e-01 -1.09328625758388e-01 1.01541697019741e-16
644 9.06040512440194e-01 -1.09499659780352e-01 1.01622741500279e-16
645 9.06115087026304e-01 -1.09670693802316e-01 1.01696198601355e-16
646 9.06189661612414e-01 -1.09841727824281e-01 1.01762031907626e-16
647 9.06264236198524e-01 -1.10012761846245e-01 1.01820205003750e-16
648 9.06338810784634e-01 -1.10183795868210e-01 1.01870681474385e-16
649 9.06413385370744e-01 -1.10354829890174e-01 1.01913424904187e-16
650 9.06487959956853e-01 -1.10525863912139e-01 1.01948398877815e-16
651 9.06562534542962e-01 -1.10696897934104e-01 1.01975566979926e-16
652 9.06637109129071e-01 -1.10867931956069e-01 1.01994892795177e-16
653 9.06711683715180e-01 -1.11038965978034e-01 1.02006339908226e-16
654 8.84505680208262e-01 -5.98996009055596e-02 -1.51939801098749e-04
655 8.84660686187685e-01 -5.98992760806057e-02 -2.49107792153662e-04
656 8.84828537725471e-01 -5.98989256119820e-02 -3.22652466138895e-04
657 8.85001408181393e-01 -5.98985664325161e-02 -3.83573490180571e-04
658 8.85176934352154e-01 -5.98982037939498e-02 -4.36421483652459e-04
659 8.85353963324688e-01 -5.98978403388052e-02 -4.84005880724789e-04
660 8.85532119509658e-01 -5.98974769501347e-02 -5.27186281868830e-04
661 8.85711112801132e-01 -5.98971143258772e-02 -5.66760191175551e-04
662 8.85890703782117e-01 -5.98967530633292e-02 -6.03532077394199e-04
663 8.86070707155313e-01 -5.98963936611624e-02 -6.38231889609144e-04
664 8.86251053225340e-01 -5.98960363354968e-02 -6.71104704142004e-04
665 8.86431700527256e-01 -5.98956811552307e-02 -7.02280363191001e-04
666 8.86612610027918e-01 -5.98953281792643e-02 -7.31897272545909e-04
667 8.86793746216751e-01 -5.98949774585321e-02 -7.60095249725311e-04
668 8.86975076835885e-01 -5.98946290368073e-02 -7.87015207028168e-04
669 8.87156572589839e-01 -5.98942829515121e-02 -8.12798886595542e-04
670 8.87338206839445e-01 -5.98939392345243e-02 -8.37588643516809e-04
671 8.87519955283974e-01 -5.98935979129746e-02 -8.61527272417415e-04
672 8.87701796371194e-01 -5.98932590065943e-02 -8.84752043460343e-04
673 8.87883721915143e-01 -5.98929224968824e-02 -9.07305723929145e-04
674 8.88065727680888e-01 -5.98925883882259e-02 -9.29202699801180e-04
675 8.88247808499622e-01 -5.98922566943790e-02 -9.50466658439421e-04
676 8.88429959454552e-01 -5.98919274286699e-02 -9.71121298925703e-04
677 8.88612175871492e-01 -5.98916006040349e-02 -9.91190327769407e-04
678 8.88794453309370e-01 -5.98912762330523e-02 -1.01069745528100e-03
679 8.88976787550697e-01 -5.98909543279759e-02 -1.02966639258335e-03
680 8.89159174591982e-01 -5.98906349007670e-02 -1.04812084923393e-03
681 8.89341610634130e-01 -5.98903179631271e-02 -1.06608453143022e-03
682 8.89524092072814e-01 -5.98900035265284e-02 -1.08358114077158e-03
683 8.89706615488853e-01 -5.98896916022449e-02 -1.10063437355087e-03
684 8.89889177638572e-01 -5.98893822013820e-02 -1.11726792054851e-03
685 8.90071775444183e-01 -5.98890753349056e-02 -1.13350546730316e-03
686 8.90254405984166e-01 -5.98887710136709e-02 -1.14937069483248e-03
687 8.90437066483667e-01 -5.98884692484497e-02 -1.16488728077886e-03
688 8.90619754304909e-01 -5.98881700499579e-02 -1.18007890095382e-03
689 8.90802466937621e-01 -5.98878734288815e-02 -1.19496923125697e-03
690 8.90985201989470e-01 -5.98875793959025e-02 -1.20958194994456e-03
691 8.91167958232930e-01 -5.98872879733848e-02 -1.22392722580957e-03
692 8.91350736572278e-01 -5.98869991934173e-02 -1.23798822490760e-03
693 8.91533536171246e-01 -5.98867130566397e-02 -1.25177015020075e-03
694 8.91716356132878e-01 -5.98864295623929e-02 -1.26527934238602e-03
695 8.91899195588401e-01 -5.98861487099410e-02 -1.27852214887992e-03
696 8.92082053696619e-01 -5.98858704984746e-02 -1.29150492337578e-03
697 8.92264929643286e-01 -5.98855949271139e-02 -1.30423402542097e-03
698 8.92447822640484e-01 -5.98853219949114e-02 -1.31671582001342e-03
699 8.92630731925995e-01 -5.98850517008548e-02 -1.32895667721725e-03
700 8.92813656762667e-01 -5.98847840438701e-02 -1.34096297179700e-03
701 8.92996596437776e-01 -5.98845190228244e-02 -1.35274108287000e-03
702 8.93179550262387e-01 -5.98842566365283e-02 -1.36429739357656e-03
703 8.93362517570707e-01 -5.98839968837390e-02 -1.37563829076736e-03
704 8.93545497719439e-01 -5.98837397631628e-02 -1.38677016470787e-03
705 8.93728490087132e-01 -5.98834852734574e-02 -1.39769940879907e-03
706 8.93911494073530e-01 -5.98832334132349e-02 -1.40843241931415e-03
707 8.94094509098914e-01 -5.98829841810639e-02 -1.41897559515077e-03
708 8.94277534603443e-01 -5.98827375754720e-02 -1.42933533759829e-03
709 8.94460570050457e-01 -5.98824935946190e-02 -1.43951797844414e-03
710 8.94643615135784e-01 -5.98822522231355e-02 -1.44952592680649e-03
711 8.94826669619996e-01 -5.98820134537487e-02 -1.45936053033594e-03
712 8.95009733202444e-01 -5.98817772870677e-02 -1.46902436540291e-03
713 8.95192805589679e-01 -5.98815437236827e-02 -1.47852000939055e-03
714 8.95375886495348e-01 -5.98813127641663e-02 -1.48785004063325e-03
715 8.95558975640091e-01 -5.98810844090734e-02 -1.49701703835739e-03
716 8.95742072751437e-01 -5.98808586589425e-02 -1.50602358262396e-03
717 8.95925177563690e-01 -5.98806355142957e-02 -1.51487225427342e-03
718 8.96108289817834e-01 -5.98804149756396e-02 -1.52356563487237e-03
719 8.96291409261417e-01 -5.98801970434662e-02 -1.53210630666234e-03
720 8.96474535648449e-01 -5.98799817182529e-02 -1.54049685251042e-03
721 8.96657668739295e-01 -5.98797690004635e-02 -1.54873985586184e-03
722 8.96840808300565e-01 -5.98795588905486e-02 -1.55683790069446e-03
723 8.97023954105010e-01 -5.98793513889463e-02 -1.56479357147503e-03
724 8.97207105931409e-01 -5.98791464960827e-02 -1.57260945311737e-03
725 8.97390263564469e-01 -5.98789442123723e-02 -1.58028813094221e-03
726 8.97573426794708e-01 -5.98787445382188e-02 -1.58783219063894e-03
727 8.97756595418353e-01 -5.98785474740154e-02 -1.59524421822893e-03
728 8.97939769237076e-01 -5.98783530259848e-02 -1.60252680397842e-03
729 8.98122948083230e-01 -5.98781612199449e-02 -1.60968189232692e-03
730 8.98306131827491e-01 -5.98779720587911e-02 -1.61671053620640e-03
731 8.98489320344567e-01 -5.98777855423890e-02 -1.62361373998175e-03
732 8.98672513511253e-01 -5.98776016706097e-02 -1.63039250761651e-03
733 8.98855711206416e-01 -5.98774204433306e-02 -1.63704784267273e-03
734 8.99038913310971e-01 -5.98772418604347e-02 -1.64358074831116e-03
735 8.99222119707870e-01 -5.98770659218115e-02 -1.64999222729156e-03
736 8.99405330282079e-01 -5.98768926273568e-02 -1.65628328197334e-03
737 8.99588544920563e-01 -5.98767219769730e-02 -1.66245491431635e-03
738 8.99771763512265e-01 -5.98765539705691e-02 -1.66850812588193e-03
739 8.99954985948093e-01 -5.98763886080610e-02 -1.67444391783419e-03
740 9.00138212120897e-01 -5.98762258893716e-02 -1.68026329094149e-03
741 9.00321441925453e-01 -5.98760658144310e-02 -1.68596724557811e-03
742 9.00504675258448e-01 -5.98759083831764e-02 -1.69155678172624e-03
743 9.00687912018458e-01 -5.98757535955528e-02 -1.69703289897804e-03
744 9.00871152105933e-01 -5.98756014515125e-02 -1.70239659653803e-03
745 9.01054395423178e-01 -5.98754519510157e-02 -1.70764887322562e-03
746 9.01237641874336e-01 -5.98753050940305e-02 -1.71279072747788e-03
747 9.01420891365371e-01 -5.98751608805329e-02 -1.71782315735250e-03
748 9.01604143804048e-01 -5.98750193105073e-02 -1.72274716053095e-03
749 9.01787399099918e-01 -5.98748803839462e-02 -1.72756373432186e-03
750 9.01970657164302e-01 -5.98747441008508e-02 -1.73227387566458e-03
751 9.02153917910267e-01 -5.98746104612306e-02 -1.73687858113294e-03
752 9.02337181252615e-01 -5.98744794651041e-02 -1.74137884693923e-03
753 9.02520447107864e-01 -5.98743511124986e-02 -1.74577566893829e-03
754 9.02703715394229e-01 -5.98742254034504e-02 -1.75007004263194e-03
755 9.02886986031605e-01 -5.98741023380049e-02 -1.75426296317343e-03
756 9.03070258941552e-01 -5.98739819162168e-02 -1.75835542537219e-03
757 9.03253534047275e-01 -5.98738641381502e-02 -1.76234842369874e-03
758 9.03436811273610e-01 -5.98737490038789e-02 -1.76624295228976e-03
759 9.03620090547001e-01 -5.98736365134860e-02 -1.77004000495333e-03
760 9.03803371795489e-01 -5.98735266670647e-02 -1.77374057517444e-03
761 9.03986654948694e-01 -5.98734194647180e-02 -1.77734565612054e-03
762 9.04169939937793e-01 -5.98733149065591e-02 -1.78085624064738e-03
763 9.04353226695509e-01 -5.98732129927110e-02 -1.78427332130496e-03
764 9.04536515156091e-01 -5.98731137233074e-02 -1.78759789034368e-03
765 9.04719805256259e-01 -5.98730170958573e-02 -1.79083088443645e-03
766 9.04903096946733e-01 -5.98729230856901e-02 -1.79397250364962e-03
767 9.05086390180283e-01 -5.98728316878430e-02 -1.79702284624659e-03
768 9.05269684908488e-01 -5.98727429037278e-02 -1.79998209295312e-03
769 9.05452981083196e-01 -5.98726567347537e-02 -1.80285042461898e-03
770 9.05636278656523e-01 -5.98725731823268e-02 -1.80562802221676e-03
771 9.05819577580853e-01 -5.98724922478503e-02 -1.80831506684072e-03
772 9.06002877808838e-01 -5.98724139327246e-02 -1.81091173970559e-03
773 9.06186179293396e-01 -5.98723382383471e-02 -1.81341822214541e-03
774 9.06369481987715e-01 -5.98722651661126e-02 -1.81583469561241e-03
775 9.06552785845246e-01 -5.98721947174128e-02 -1.81816134167579e-03
776 9.06736090819708e-01 -5.98721268936367e-02 -1.82039834202061e-03
777 9.06919396865088e-01 -5.98720616961705e-02 -1.82254587844662e-03
778 9.07102703935635e-01 -5.98719991263975e-02 -1.82460413286715e-03
779 9.07286011985866e-01 -5.98719391856985e-02 -1.82657328730794e-03
780 9.07469320970562e-01 -5.98718818754512e-02 -1.82845352390602e-03
781 9.07652630844768e-01 -5.98718271970308e-02 -1.83024502490858e-03
782 9.07835941563794e-01 -5.98717751518097e-02 -1.83194797267187e-03
783 9.08019253083214e-01 -5.98717257411575e-02 -1.83356254966003e-03
784 9.08202565358866e-01 -5.98716789664413e-02 -1.83508893844403e-03
785 9.08385878346849e-01 -5.98716348290254e-02 -1.83652732170055e-03
786 9.08569192003526e-01 -5.98715933302714e-02 -1.83787788221084e-03
787 9.08752506285525e-01 -5.98715544715384e-02 -1.83914080285967e-03
788 9.08935821149731e-01 -5.98715182541826e-02 -1.84031626663421e-03
789 9.09119136553295e-01 -5.98714846795579e-02 -1.84140445662294e-03
790 9.09302452453627e-01 -5.98714537490155e-02 -1.84240555601458e-03
791 9.09485768808398e-01 -5.98714254639037e-02 -1.84331974809701e-03
792 9.09669085575540e-01 -5.98713998255688e-02 -1.84414721625617e-03
793 9.09852402713246e-01 -5.98713768353541e-02 -1.84488814397504e-03
794 9.10035720179967e-01 -5.98713564946005e-02 -1.84554271483252e-03
795 9.10219037934414e-01 -5.98713388046465e-02 -1.84611111250240e-03
796 9.10402355935557e-01 -5.98713237668278e-02 -1.84659352075233e-03
797 9.10585674142625e-01 -5.98713113824779e-02 -1.84699012344270e-03
798 9.10768992515104e-01 -5.98713016529276e-02 -1.84730110452567e-03
799 9.10952311012738e-01 -5.98712945795055e-02 -1.84752664804409e-03
800 9.11135629595530e-01 -5.98712901635375e-02 -1.84766693813047e-03
801 9.11318948223736e-01 -5.98712884063472e-02 -1.84772215900595e-03
802 9.11502266857875e-01 -5.98712893091563e-02 -1.84769249773110e-03
803 9.11685585458702e-01 -5.98712928697540e-02 -1.84757812368164e-03
804 9.11868903986887e-01 -5.98712990858276e-02 -1.84737891039059e-03
805 9.12052222402813e-01 -5.98713079561415e-02 -1.84709465438902e-03
806 9.12235540666580e-01 -5.98713194794581e-02 -1.84672515226798e-03
807 9.12418858738002e-01 -5.98713336545375e-02 -1.84627020067954e-03
808 9.12602176576613e-01 -5.98713504801375e-02 -1.84572959633783e-03
809 9.12785494141658e-01 -5.98713699550139e-02 -1.84510313602017e-03
810 9.12968811392101e-01 -5.98713920779201e-02 -1.84439061656815e-03
811 9.13152128286616e-01 -5.98714168476071e-02 -1.84359183488867e-03
812 9.13335444783592e-01 -5.98714442628240e-02 -1.84270658795510e-03
813 9.13518760841132e-01 -5.98714743223172e-02 -1.84173467280835e-03
814 9.13702076417048e-01 -5.98715070248309e-02 -1.84067588655799e-03
815 9.13885391468868e-01 -5.98715423691071e-02 -1.83953002638335e-03
816 9.14068705953829e-01 -5.98715803538852e-02 -1.83829688953469e-03
817 9.14252019828877e-01 -5.98716209779025e-02 -1.83697627333427e-03
818 9.14435333050670e-01 -5.98716642398936e-02 -1.83556797517751e-03
819 9.14618645575577e-01 -5.98717101385910e-02 -1.83407179253417e-03
820 9.14801957359672e-01 -5.98717586727244e-02 -1.83248752294943e-03
821 9.14985268358740e-01 -5.98718098410214e-02 -1.83081496404511e-03
822 9.15168578528272e-01 -5.98718636422069e-02 -1.82905391352078e-03
823 9.15351887823470e-01 -5.98719200750034e-02 -1.82720416915496e-03
824 9.15535196199239e-01 -5.98719791381310e-02 -1.82526552880629e-03
825 9.15718503610190e-01 -5.98720408303070e-02 -1.82323779041471e-03
826 9.15901810010643e-01 -5.98721051502463e-02 -1.82112075200263e-03
827 9.16085115354621e-01 -5.98721720966614e-02 -1.81891421167616e-03
828 9.16268419595850e-01 -5.98722416682620e-02 -1.81661796762626e-03
829 9.16451722687763e-01 -5.98723138637552e-02 -1.81423181812999e-03
830 9.16635024583496e-01 -5.98723886818456e-02 -1.81175556155173e-03
831 9.16818325235887e-01 -5.98724661212352e-02 -1.80918899634436e-03
832 9.17001624597475e-01 -5.98725461806232e-02 -1.80653192105049e-03
833 9.17184922620506e-01 -5.98726288587061e-02 -1.80378413430373e-03
834 9.17368219256922e-01 -5.98727141541779e-02 -1.80094543482990e-03
835 9.17551514458369e-01 -5.98728020657298e-02 -1.79801562144828e-03
836 9.17734808176192e-01 -5.98728925920502e-02 -1.79499449307287e-03
837 9.17918100361438e-01 -5.98729857318248e-02 -1.79188184871363e-03
838 9.18101390964852e-01 -5.98730814837366e-02 -1.78867748747777e-03
839 9.18284679936890e-01 -5.98731798465030e-02 -1.78538120924639e-03
840 9.18467967231432e-01 -5.98732808385275e-02 -1.78199301558313e-03
841 9.18651252790711e-01 -5.98733844758074e-02 -1.77851229733799e-03
842 9.18834536547848e-01 -5.98734907581504e-02 -1.77493802287303e-03
843 9.19017818434386e-01 -5.98735996853603e-02 -1.77126916069606e-03
844 9.19201098380273e-01 -5.98737112572371e-02 -1.76750467946797e-03
845 9.19384376313841e-01 -5.98738254735766e-02 -1.76364354801030e-03
846 9.19567652161796e-01 -5.98739423341703e-02 -1.75968473531293e-03
847 9.19750925849194e-01 -5.98740618388053e-02 -1.75562721054202e-03
848 9.19934197299427e-01 -5.98741839872645e-02 -1.75146994304812e-03
849 9.20117466434207e-01 -5.98743087793258e-02 -1.74721190237446e-03
850 9.20300733173547e-01 -5.98744362147625e-02 -1.74285205826547e-03
851 9.20483997435747e-01 -5.98745662933430e-02 -1.73838938067548e-03
852 9.20667259137372e-01 -5.98746990148307e-02 -1.73382283977762e-03
853 9.20850518193242e-01 -5.98748343789837e-02 -1.72915140597293e-03
854 9.21033774516408e-01 -5.98749723855550e-02 -1.72437404989966e-03
855 9.21217028018140e-01 -5.98751130342919e-02 -1.71948974244279e-03
856 9.21400278607912e-01 -5.98752563249364e-02 -1.71449745474379e-03
857 9.21583526193377e-01 -5.98754022572244e-02 -1.70939615821050e-03
858 9.21766770680360e-01 -5.98755508308864e-02 -1.70418482452732e-03
859 9.21950011972835e-01 -5.98757020456463e-02 -1.69886242566557e-03
860 9.22133249972911e-01 -5.98758559012224e-02 -1.69342793389403e-03
861 9.22316484580815e-01 -5.98760123973263e-02 -1.68788032178977e-03
862 9.22499715694876e-01 -5.98761715336633e-02 -1.68221856224916e-03
863 9.22682943211506e-01 -5.98763333099319e-02 -1.67644162849910e-03
864 9.22866167025187e-01 -5.98764977258241e-02 -1.67054849410845e-03
865 9.23049387028454e-01 -5.98766647810249e-02 -1.66453813299976e-03
866 9.23232603111878e-01 -5.98768344752119e-02 -1.65840951946112e-03
867 9.23415815164048e-01 -5.98770068080559e-02 -1.65216162815834e-03
868 9.23599023071558e-01 -5.98771817792201e-02 -1.64579343414728e-03
869 9.23782226718989e-01 -5.98773593883602e-02 -1.63930391288647e-03
870 9.23965425988894e-01 -5.98775396351241e-02 -1.63269204024988e-03
871 9.24148620761780e-01 -5.98777225191518e-02 -1.62595679254006e-03
872 9.24331810916095e-01 -5.98779080400755e-02 -1.61909714650135e-03
873 9.24514996328210e-01 -5.98780961975190e-02 -1.61211207933345e-03
874 9.24698176872404e-01 -5.98782869910976e-02 -1.60500056870519e-03
875 9.24881352420847e-01 -5.98784804204184e-02 -1.59776159276851e-03
876 9.25064522843586e-01 -5.98786764850795e-02 -1.59039413017276e-03
877 9.25247687993758e-01 -5.98788751727178e-02 -1.58289680041533e-03
878 9.25430847671014e-01 -5.98790764640636e-02 -1.57526700908481e-03
879 9.25614001663591e-01 -5.98792803587873e-02 -1.56750202517206e-03
880 9.25797149753827e-01 -5.98794868567893e-02 -1.55959912166164e-03
881 9.25980291717927e-01 -5.98796959579532e-02 -1.55155557266870e-03
882 9.26163427325848e-01 -5.98799076621450e-02 -1.54336865349471e-03
883 9.26346556341179e-01 -5.98801219692125e-02 -1.53503564068504e-03
884 9.26529678521028e-01 -5.98803388789847e-02 -1.52655381208858e-03
885 9.26712793615899e-01 -5.98805583912713e-02 -1.51792044691926e-03
886 9.26895901369584e-01 -5.98807805058619e-02 -1.50913282581973e-03
887 9.27079001519045e-01 -5.98810052225255e-02 -1.50018823092698e-03
888 9.27262093794295e-01 -5.98812325410100e-02 -1.49108394594011e-03
889 9.27445177918291e-01 -5.98814624610413e-02 -1.48181725619025e-03
890 9.27628253606813e-01 -5.98816949823227e-02 -1.47238544871259e-03
891 9.27811320568356e-01 -5.98819301045344e-02 -1.46278581232062e-03
892 9.27994378504016e-01 -5.98821678273326e-02 -1.45301563768259e-03
893 9.28177427107376e-01 -5.98824081503490e-02 -1.44307221740019e-03
894 9.28360466064396e-01 -5.98826510731901e-02 -1.43295284608958e-03
895 9.28543495062551e-01 -5.98828965967936e-02 -1.42265498371887e-03
896 9.28726513875841e-01 -5.98831447447377e-02 -1.41217773419761e-03
897 9.28909522019233e-01 -5.98833955251881e-02 -1.40151580627802e-03
898 9.29092518908087e-01 -5.98836489374815e-02 -1.39066249423592e-03
899 9.29275503936407e-01 -5.98839049810237e-02 -1.37961108888795e-03
900 9.29458476476046e-01 -5.98841636552872e-02 -1.36835487713058e-03
901 9.29641435875909e-01 -5.98844249598081e-02 -1.35688714149581e-03
902 9.29824381461155e-01 -5.98846888941838e-02 -1.34520115972403e-03
903 9.30007312532393e-01 -5.98849554580698e-02 -1.33329020435460e-03
904 9.30190228364870e-01 -5.98852246511770e-02 -1.32114754233473e-03
905 9.30373128207657e-01 -5.98854964732685e-02 -1.30876643464693e-03
906 9.30556011282836e-01 -5.98857709241569e-02 -1.29614013595601e-03
907 9.30738876784668e-01 -5.98860480037008e-02 -1.28326189427579e-03
908 9.30921723878776e-01 -5.98863277118023e-02 -1.27012495065629e-03
909 9.31104551701305e-01 -5.98866100484029e-02 -1.25672253889204e-03
910 9.31287359358087e-01 -5.98868950134811e-02 -1.24304788525204e-03
911 9.31470145923797e-01 -5.98871826070484e-02 -1.22909420823195e-03
912 9.31652910441107e-01 -5.98874728291463e-02 -1.21485471832925e-03
913 9.31835651919834e-01 -5.98877656798426e-02 -1.20032261784201e-03
914 9.32018370197834e-01 -5.98880611466109e-02 -1.18550166574340e-03
915 9.32201066202131e-01 -5.98883591859315e-02 -1.17040870107591e-03
916 9.32383737495044e-01 -5.98886597862240e-02 -1.15501963204604e-03
917 9.32566381287293e-01 -5.98889629384071e-02 -1.13930763485087e-03
918 9.32748994646319e-01 -5.98892686331701e-02 -1.12324588895593e-03
919 9.32931574484468e-01 -5.98895768609433e-02 -1.10680757935972e-03
920 9.33114117547197e-01 -5.98898876118668e-02 -1.08996589933608e-03
921 9.33296620401346e-01 -5.98902008757582e-02 -1.07269405369084e-03
922 9.33479079423456e-01 -5.98905166420803e-02 -1.05496526256927e-03
923 9.33661490788179e-01 -5.98908348999070e-02 -1.03675276585012e-03
924 9.33843850456767e-01 -5.98911556378893e-02 -1.01802982816185e-03
925 9.34026154165679e-01 -5.98914788442201e-02 -9.98769744556051e-04
926 9.34208397415321e-01 -5.98918045065982e-02 -9.78945846871830e-04
927 9.34390575458935e-01 -5.98921326121921e-02 -9.58531510824634e-04
928 9.34572683291677e-01 -5.98924631476027e-02 -9.37500163851616e-04
929 9.34754715639891e-01 -5.98927960988259e-02 -9.15825293743835e-04
930 9.34936666950632e-01 -5.98931314512150e-02 -8.93480458094728e-04
931 9.35118531381454e-01 -5.98934691894416e-02 -8.70439294591757e-04
932 9.35300302842227e-01 -5.98938092978962e-02 -8.46675922057956e-04
933 9.35481979110564e-01 -5.98941518244461e-02 -8.22195469416712e-04
934 9.35663541059445e-01 -5.98944967776515e-02 -7.96881636953593e-04
935 9.35844958353989e-01 -5.98948441067031e-02 -7.70551742239307e-04
936 9.36026197646911e-01 -5.98951937543882e-02 -7.43023974955805e-04
937 9.36207222072282e-01 -5.98955456558729e-02 -7.14117706044816e-04
938 9.36387990764301e-01 -5.98958997374832e-02 -6.83653869556604e-04
939 9.36568458409171e-01 -5.98962559155042e-02 -6.51455425747118e-04
940 9.36748574839870e-01 -5.98966140950182e-02 -6.17347912324991e-04
941 9.36928284685084e-01 -5.98969741688072e-02 -5.81160088598749e-04
942 9.37107541445695e-01 -5.98973360172030e-02 -5.42791108472481e-04
943 9.37286166259971e-01 -5.98976991291519e-02 -5.01588125802037e-04
944 9.37463770301483e-01 -5.98980625551475e-02 -4.56197718812276e-04
945 9.37639862742598e-01 -5.98984251398516e-02 -4.05270623933157e-04
946 9.37813824024789e-01 -5.98987854587285e-02 -3.47496542599933e-04
947 9.37984123074260e-01 -5.98991400763337e-02 -2.79767770476045e-04
948 9.38146071774105e-01 -5.98994787399701e-02 -1.94269365022324e-04
949 9.38277258169037e-01 -5.98997536412768e-02 -6.87914768127043e-05
950 9.38255463822139e-01 -5.98997079833253e-02 1.01165915607928e-04
951 9.38112811768040e-01 -5.98994090966835e-02 2.14781113108749e-04
952 9.37948288781358e-01 -5.98990653172855e-02 2.95357303011119e-04
953 9.37606581390156e-01 -5.98983564178100e-02 4.15012848618644e-04
954 9.37434308012713e-01 -5.98980020482512e-02 4.63265232739481e-04
955 9.37260854135213e-01 -5.98976474818760e-02 5.07099791372868e-04
956 9.37086555822179e-01 -5.98972935255043e-02 5.47449841445467e-04
957 9.36911589814469e-01 -5.98969406170461e-02 5.84802064433557e-04
958 9.36736107449001e-01 -5.98965891397685e-02 6.19651063441578e-04
959 9.36560238725728e-01 -5.98962394322235e-02 6.52497406493326e-04
960 9.36384077026644e-01 -5.98958917636145e-02 6.83735376199852e-04
961 9.36207659710774e-01 -5.98955462200357e-02 7.13496337247657e-04
962 9.36031016693445e-01 -5.98952028338502e-02 7.41887455856030e-04
963 9.35854175302136e-01 -5.98948616327862e-02 7.69016009941134e-04
964 9.35677160482154e-01 -5.98945226405028e-02 7.94989313308888e-04
965 9.35499995004818e-01 -5.98941858771381e-02 8.19914670155862e-04
966 9.35322699676849e-01 -5.98938513598378e-02 8.43899357123709e-04
967 9.35145293550051e-01 -5.98935191032654e-02 8.67050630211076e-04
968 9.34967794130763e-01 -5.98931891200924e-02 8.89475753934720e-04
969 9.34790216550159e-01 -5.98928614189924e-02 9.11273513900764e-04
970 9.34612566586863e-01 -5.98925359993147e-02 9.32473333059999e-04
971 9.34434848218974e-01 -5.98922128730629e-02 9.53091939959635e-04
972 9.34257065597844e-01 -5.98918920536496e-02 9.73149064320244e-04
973 9.34079222689765e-01 -5.98915735540346e-02 9.92664493360766e-04
974 9.33901323281750e-01 -5.98912573867474e-02 1.01165806583235e-03
975 9.33723370987449e-01 -5.98909435639090e-02 1.03014966646386e-03
976 9.33545369253198e-01 -5.98906320972545e-02 1.04815922080785e-03
977 9.33367321364177e-01 -5.98903229981545e-02 1.06570669047504e-03
978 9.33189230450675e-01 -5.98900162776367e-02 1.08281206874473e-03
979 9.33011099494445e-01 -5.98897119464070e-02 1.09949537653769e-03
980 9.32832931335135e-01 -5.98894100148706e-02 1.11577665873797e-03
981 9.32654728676791e-01 -5.98891104931519e-02 1.13167598084923e-03
982 9.32476494094422e-01 -5.98888133911153e-02 1.14721342597091e-03
983 9.32298230040616e-01 -5.98885187183842e-02 1.16240909207938e-03
984 9.32119938852203e-01 -5.98882264843604e-02 1.17728308959863e-03
985 9.31941622756955e-01 -5.98879366982433e-02 1.19185553924515e-03
986 9.31763283880320e-01 -5.98876493690476e-02 1.20614657013112e-03
987 9.31584924252181e-01 -5.98873645056212e-02 1.22017631811020e-03
988 9.31406545216934e-01 -5.98870821253533e-02 1.23395716238540e-03
989 9.31228146047877e-01 -5.98868022634302e-02 1.24747491377728e-03
990 9.31049727396441e-01 -5.98865249211039e-02 1.26073310356791e-03
991 9.30871290058649e-01 -5.98862500965963e-02 1.27373744487918e-03
992 9.30692834805674e-01 -5.98859777881270e-02 1.28649364774551e-03
993 9.30514362384420e-01 -5.98857079939155e-02 1.29900741910561e-03
994 9.30335873518112e-01 -5.98854407121839e-02 1.31128446281032e-03
995 9.30157368906874e-01 -5.98851759411592e-02 1.32333047964593e-03
996 9.29978849228310e-01 -5.98849136790755e-02 1.33515116737290e-03
997 9.29800315138087e-01 -5.98846539241766e-02 1.34675222077925e-03
998 9.29621767270514e-01 -5.98843966747179e-02 1.35813933174835e-03
999 9.29443206239113e-01 -5.98841419289689e-02 1.36931818934086e-03
1000 9.29264632637202e-01 -5.98838896852151e-02 1.38029447989018e-03
1001 9.29086047038466e-01 -5.98836399417603e-02 1.39107388711126e-03
1002 9.28907449997525e-01 -5.98833926969285e-02 1.40166209222225e-03
1003 9.28728842050515e-01 -5.98831479490658e-02 1.41206477407858e-03
1004 9.28550223715647e-01 -5.98829056965426e-02 1.42228760931934e-03
1005 9.28371595493782e-01 -5.98826659377554e-02 1.43233627252529e-03
1006 9.28192957868994e-01 -5.98824286711284e-02 1.44221643638836e-03
1007 9.28014311239791e-01 -5.98821938905503e-02 1.45193249106047e-03
1008 9.27835655790071e-01 -5.98819615835639e-02 1.46148504724914e-03
1009 9.27656991784193e-01 -5.98817317502887e-02 1.47087628007034e-03
1010 9.27478319487952e-01 -5.98815043914994e-02 1.48010850620063e-03
1011 9.27299639161007e-01 -5.98812795079497e-02 1.48918404400186e-03
1012 9.27120951056963e-01 -5.98810571003727e-02 1.49810521345907e-03
1013 9.26942255423459e-01 -5.98808371694817e-02 1.50687433612007e-03
1014 9.26763552502246e-01 -5.98806197159705e-02 1.51549373503653e-03
1015 9.26584842529277e-01 -5.98804047405139e-02 1.52396573470666e-03
1016 9.26406125734792e-01 -5.98801922437682e-02 1.53229266101943e-03
1017 9.26227402343400e-01 -5.98799822263719e-02 1.54047684120038e-03
1018 9.26048672574167e-01 -5.98797746889459e-02 1.54852060375882e-03
1019 9.25869936640702e-01 -5.98795696320941e-02 1.55642627843665e-03
1020 9.25691194751246e-01 -5.98793670564041e-02 1.56419619615853e-03
1021 9.25512447108753e-01 -5.98791669624473e-02 1.57183268898356e-03
1022 9.25333693910985e-01 -5.98789693507794e-02 1.57933809005839e-03
1023 9.25154935350592e-01 -5.98787742219414e-02 1.58671473357168e-03
1024 9.24976171615207e-01 -5.98785815764591e-02 1.59396495470998e-03
1025 9.24797402887528e-01 -5.98783914148445e-02 1.60109108961500e-03
1026 9.24618629344972e-01 -5.98782037482532e-02 1.60809546425852e-03
1027 9.24439851129452e-01 -5.98780185973994e-02 1.61497960507967e-03
1028 9.24261068356640e-01 -5.98778359628566e-02 1.62174442795235e-03
1029 9.24082281140116e-01 -5.98776558446818e-02 1.62839084209541e-03
1030 9.23903489591659e-01 -5.98774782429247e-02 1.63491975716549e-03
1031 9.23724693821263e-01 -5.98773031576270e-02 1.64133208324532e-03
1032 9.23545893937151e-01 -5.98771305888234e-02 1.64762873083234e-03
1033 9.23367090045781e-01 -5.98769605365412e-02 1.65381061082737e-03
1034 9.23188282251867e-01 -5.98767930008008e-02 1.65987863452359e-03
1035 9.23009470658385e-01 -5.98766279816154e-02 1.66583371359558e-03
1036 9.22830655366591e-01 -5.98764654789916e-02 1.67167676008864e-03
1037 9.22651836476032e-01 -5.98763054929292e-02 1.67740868640827e-03
1038 9.22473014084559e-01 -5.98761480234215e-02 1.68303040530977e-03
1039 9.22294188288338e-01 -5.98759930704553e-02 1.68854282988808e-03
1040 9.22115359181868e-01 -5.98758406340112e-02 1.69394687356779e-03
1041 9.21936526857991e-01 -5.98756907140637e-02 1.69924345009329e-03
1042 9.21757691407905e-01 -5.98755433105810e-02 1.70443347351913e-03
1043 9.21578852921178e-01 -5.98753984235258e-02 1.70951785820055e-03
1044 9.21400011485762e-01 -5.98752560528548e-02 1.71449751878415e-03
1045 9.21221167188005e-01 -5.98751161985189e-02 1.71937337019877e-03
1046 9.21042320112665e-01 -5.98749788604638e-02 1.72414632764653e-03
1047 9.20863470342924e-01 -5.98748440386295e-02 1.72881730659401e-03
1048 9.20684617960399e-01 -5.98747117329509e-02 1.73338722276365e-03
1049 9.20505763045160e-01 -5.98745819433578e-02 1.73785699212524e-03
1050 9.20326905675739e-01 -5.98744546697747e-02 1.74222753088768e-03
1051 9.20148045929147e-01 -5.98743299121213e-02 1.74649975549079e-03
1052 9.19969183880882e-01 -5.98742076703127e-02 1.75067458259735e-03
1053 9.19790319604952e-01 -5.98740879442591e-02 1.75475292908529e-03
1054 9.19611453173879e-01 -5.98739707338660e-02 1.75873571204007e-03
1055 9.19432584658718e-01 -5.98738560390347e-02 1.76262384874709e-03
1056 9.19253714129072e-01 -5.98737438596620e-02 1.76641825668447e-03
1057 9.19074841653098e-01 -5.98736341956406e-02 1.77011985351575e-03
1058 9.18895967297531e-01 -5.98735270468589e-02 1.77372955708294e-03
1059 9.18717091127690e-01 -5.98734224132014e-02 1.77724828539961e-03
1060 9.18538213207495e-01 -5.98733202945486e-02 1.78067695664417e-03
1061 9.18359333599481e-01 -5.98732206907772e-02 1.78401648915328e-03
1062 9.18180452364810e-01 -5.98731236017604e-02 1.78726780141542e-03
1063 9.18001569563282e-01 -5.98730290273553e-02 1.79043181180427e-03
1064 9.17822685245345e-01 -5.98729369519514e-02 1.79350897046778e-03
1065 9.17643799452936e-01 -5.98728473626091e-02 1.79649926098786e-03
1066 9.17464912230966e-01 -5.98727602606950e-02 1.79940284858753e-03
1067 9.17286023624106e-01 -5.98726756475735e-02 1.80221989857991e-03
1068 9.17107133676789e-01 -5.98725935246062e-02 1.80495057636720e-03
1069 9.16928242433206e-01 -5.98725138931523e-02 1.80759504743972e-03
1070 9.16749349937312e-01 -5.98724367545689e-02 1.81015347737493e-03
1071 9.16570456232821e-01 -5.98723621102102e-02 1.81262603183646e-03
1072 9.16391561363211e-01 -5.98722899614282e-02 1.81501287657312e-03
1073 9.16212665371720e-01 -5.98722203095726e-02 1.81731417741796e-03
1074 9.16033768301349e-01 -5.98721531559904e-02 1.81953010028727e-03
1075 9.15854870194863e-01 -5.98720885020265e-02 1.82166081117967e-03
1076 9.15675971094789e-01 -5.98720263490233e-02 1.82370647617514e-03
1077 9.15497071043417e-01 -5.98719666983209e-02 1.82566726143405e-03
1078 9.15318170082801e-01 -5.98719095512571e-02 1.82754333319623e-03
1079 9.15139268254760e-01 -5.98718549091673e-02 1.82933485778005e-03
1080 9.14960365600875e-01 -5.98718027733845e-02 1.83104200158145e-03
1081 9.14781462162495e-01 -5.98717531452396e-02 1.83266493107301e-03
1082 9.14602557980731e-01 -5.98717060260612e-02 1.83420381280307e-03
1083 9.14423653096462e-01 -5.98716614171754e-02 1.83565881339475e-03
1084 9.14244747550330e-01 -5.98716193199064e-02 1.83703009954505e-03
1085 9.14065841382747e-01 -5.98715797355758e-02 1.83831783802393e-03
1086 9.13886934633887e-01 -5.98715426655032e-02 1.83952219567343e-03
1087 9.13708027343695e-01 -5.98715081110059e-02 1.84064333940673e-03
1088 9.13529119551879e-01 -5.98714760733990e-02 1.84168143620725e-03
1089 9.13350211297918e-01 -5.98714465539955e-02 1.84263665312777e-03
1090 9.13171302621059e-01 -5.98714195541062e-02 1.84350915728952e-03
1091 9.12992393560313e-01 -5.98713950750396e-02 1.84429911588129e-03
1092 9.12813484154465e-01 -5.98713731181021e-02 1.84500669615857e-03
1093 9.12634574442066e-01 -5.98713536845982e-02 1.84563206544264e-03
1094 9.12455664461436e-01 -5.98713367758299e-02 1.84617539111969e-03
1095 9.12276754250668e-01 -5.98713223930974e-02 1.84663684063999e-03
1096 9.12097843847621e-01 -5.98713105376988e-02 1.84701658151697e-03
1097 9.11918933289927e-01 -5.98713012109299e-02 1.84731478132638e-03
1098 9.11740022614989e-01 -5.98712944140845e-02 1.84753160770545e-03
1099 9.11561111859980e-01 -5.98712901484546e-02 1.84766722835199e-03
1100 9.11382201061847e-01 -5.98712884153298e-02 1.84772181102357e-03
1101 9.11203290257304e-01 -5.98712892158870e-02 1.84769552664407e-03
1102 9.11024379482857e-01 -5.98712925481992e-02 1.84758852428315e-03
1103 9.10845468775095e-01 -5.98712984102849e-02 1.84740068078196e-03
1104 9.10666558170864e-01 -5.98713068010213e-02 1.84713180843081e-03
1105 9.10487647707266e-01 -5.98713177192834e-02 1.84678171959715e-03
1106 9.10308737421656e-01 -5.98713311639441e-02 1.84635022672665e-03
1107 9.10129827351647e-01 -5.98713471338741e-02 1.84583714234412e-03
1108 9.09950917535107e-01 -5.98713656279417e-02 1.84524227905456e-03
1109 9.09772008010162e-01 -5.98713866450132e-02 1.84456544954412e-03
1110 9.09593098815193e-01 -5.98714101839524e-02 1.84380646658117e-03
1111 9.09414189988841e-01 -5.98714362436210e-02 1.84296514301725e-03
1112 9.09235281570005e-01 -5.98714648228783e-02 1.84204129178816e-03
1113 9.09056373597841e-01 -5.98714959205815e-02 1.84103472591491e-03
1114 9.08877466111765e-01 -5.98715295355851e-02 1.83994525850481e-03
1115 9.08698559151453e-01 -5.98715656667417e-02 1.83877270275249e-03
1116 9.08519652756839e-01 -5.98716043129012e-02 1.83751687194093e-03
1117 9.08340746968121e-01 -5.98716454729113e-02 1.83617757944253e-03
1118 9.08161841825754e-01 -5.98716891456174e-02 1.83475463872013e-03
1119 9.07982937370457e-01 -5.98717353298622e-02 1.83324786332810e-03
1120 9.07804033643209e-01 -5.98717840244864e-02 1.83165706691338e-03
1121 9.07625130685252e-01 -5.98718352283279e-02 1.82998206321656e-03
1122 9.07446228538090e-01 -5.98718889402223e-02 1.82822266607294e-03
1123 9.07267327243491e-01 -5.98719451590028e-02 1.82637868941364e-03
1124 9.07088426843485e-01 -5.98720038835001e-02 1.82444994726663e-03
1125 9.06909527380366e-01 -5.98720651125423e-02 1.82243625375789e-03
1126 9.06730628896695e-01 -5.98721288449550e-02 1.82033742311241e-03
1127 9.06551731435293e-01 -5.98721950795614e-02 1.81815326965539e-03
1128 9.06372835039251e-01 -5.98722638151821e-02 1.81588360781328e-03
1129 9.06193939751920e-01 -5.98723350506351e-02 1.81352825211489e-03
1130 9.06015045616923e-01 -5.98724087847360e-02 1.81108701719254e-03
1131 9.05836152678144e-01 -5.98724850162975e-02 1.80855971778316e-03
1132 9.05657260979736e-01 -5.98725637441299e-02 1.80594616872939e-03
1133 9.05478370566119e-01 -5.98726449670409e-02 1.80324618498078e-03
1134 9.05299481481982e-01 -5.98727286838355e-02 1.80045958159483e-03
1135 9.05120593772278e-01 -5.98728148933160e-02 1.79758617373821e-03
1136 9.04941707482231e-01 -5.98729035942822e-02 1.79462577668787e-03
1137 9.04762822657334e-01 -5.98729947855311e-02 1.79157820583220e-03
1138 9.04583939343347e-01 -5.98730884658570e-02 1.78844327667216e-03
1139 9.04405057585483e-01 -5.98731846375000e-02 1.78522084991338e-03
1140 9.04226177428711e-01 -5.98732833253004e-02 1.78191081273935e-03
1141 9.04047298931876e-01 -5.98733845342092e-02 1.77851233000781e-03
1142 9.03868422157134e-01 -5.98734882639857e-02 1.77502445925612e-03
1143 9.03689547168062e-01 -5.98735945143973e-02 1.77144625785522e-03
1144 9.03510674029669e-01 -5.98737032852192e-02 1.76777678300531e-03
1145 9.03331802808412e-01 -5.98738145762348e-02 1.76401509173157e-03
1146 9.03152933572213e-01 -5.98739283872350e-02 1.76016024088011e-03
1147 9.02974066390475e-01 -5.98740447180186e-02 1.75621128711402e-03
1148 9.02795201334096e-01 -5.98741635683920e-02 1.75216728690965e-03
1149 9.02616338475484e-01 -5.98742849381688e-02 1.74802729655302e-03
1150 9.02437477888576e-01 -5.98744088271701e-02 1.74379037213638e-03
1151 9.02258619648849e-01 -5.98745352352242e-02 1.73945556955497e-03
1152 9.02079763833339e-01 -5.98746641621665e-02 1.73502194450394e-03
1153 9.01900910520654e-01 -5.98747956078391e-02 1.73048855247543e-03
1154 9.01722059790995e-01 -5.98749295720914e-02 1.72585444875584e-03
1155 9.01543211726163e-01 -5.98750660547790e-02 1.72111868842325e-03
1156 9.01364366409584e-01 -5.98752050557646e-02 1.71628032634506e-03
1157 9.01185523926317e-01 -5.98753465749168e-02 1.71133841717578e-03
1158 9.01006684363076e-01 -5.98754906121110e-02 1.70629201535495e-03
1159 9.00827847808240e-01 -5.98756371672286e-02 1.70114017510537e-03
1160 9.00649014351875e-01 -5.98757862401570e-02 1.69588195043139e-03
1161 9.00470184085745e-01 -5.98759378307896e-02 1.69051639511743e-03
1162 9.00291357103328e-01 -5.98760919390257e-02 1.68504256272674e-03
1163 9.00112533499835e-01 -5.98762485647701e-02 1.67945950660022e-03
1164 8.99933713372224e-01 -5.98764077079331e-02 1.67376627985559e-03
1165 8.99754896819216e-01 -5.98765693684306e-02 1.66796193538662e-03
1166 8.99576083941311e-01 -5.98767335461836e-02 1.66204552586263e-03
1167 8.99397274840804e-01 -5.98769002411183e-02 1.65601610372814e-03
1168 8.99218469621800e-01 -5.98770694531657e-02 1.64987272120279e-03
1169 8.99039668390231e-01 -5.98772411822617e-02 1.64361443028137e-03
1170 8.98860871253874e-01 -5.98774154283471e-02 1.63724028273409e-03
1171 8.98682078322363e-01 -5.98775921913670e-02 1.63074933010709e-03
1172 8.98503289707207e-01 -5.98777714712708e-02 1.62414062372310e-03
1173 8.98324505521806e-01 -5.98779532680125e-02 1.61741321468233e-03
1174 8.98145725881467e-01 -5.98781375815499e-02 1.61056615386360e-03
1175 8.97966950903421e-01 -5.98783244118449e-02 1.60359849192559e-03
1176 8.97788180706837e-01 -5.98785137588630e-02 1.59650927930844e-03
1177 8.97609415418618e-01 -5.98787056162323e-02 1.58929742361478e-03
1178 8.97430655210840e-01 -5.98788999608639e-02 1.58196078699698e-03
1179 8.97251900273915e-01 -5.98790967903585e-02 1.57449689910952e-03
1180 8.97073150802988e-01 -5.98792961043868e-02 1.56690330291655e-03
1181 8.96894406998574e-01 -5.98794979026211e-02 1.55917754128504e-03
1182 8.96715669066662e-01 -5.98797021847352e-02 1.55131715699042e-03
1183 8.96536937218820e-01 -5.98799089504035e-02 1.54331969272368e-03
1184 8.96358211672291e-01 -5.98801181993008e-02 1.53518269110013e-03
1185 8.96179492650103e-01 -5.98803299311014e-02 1.52690369466978e-03
1186 8.96000780381167e-01 -5.98805441454790e-02 1.51848024592939e-03
1187 8.95822075100382e-01 -5.98807608421060e-02 1.50990988733625e-03
1188 8.95643377048736e-01 -5.98809800206526e-02 1.50119016132366e-03
1189 8.95464686473411e-01 -5.98812016807870e-02 1.49231861031818e-03
1190 8.95286003627883e-01 -5.98814258221741e-02 1.48329277675866e-03
1191 8.95107328772025e-01 -5.98816524444753e-02 1.47411020311712e-03
1192 8.94928662172210e-01 -5.98818815473480e-02 1.46476843192146e-03
1193 8.94750004101413e-01 -5.98821131304448e-02 1.45526500578001e-03
1194 8.94571354839313e-01 -5.98823471934130e-02 1.44559746740811e-03
1195 8.94392714672396e-01 -5.98825837358939e-02 1.43576335965647e-03
1196 8.94214083842613e-01 -5.98828227640275e-02 1.42576114062719e-03
1197 8.94035462613792e-01 -5.98830642951816e-02 1.41558897281960e-03
1198 8.93856851488661e-01 -5.98833083311188e-02 1.40524097934880e-03
1199 8.93678250997412e-01 -5.98835548726990e-02 1.39471111224638e-03
1200 8.93499661688780e-01 -5.98838039207673e-02 1.38399332398909e-03
1201 8.93321084130662e-01 -5.98840554761511e-02 1.37308156757402e-03
1202 8.93142518910739e-01 -5.98843095396586e-02 1.36196979660739e-03
1203 8.92963966637085e-01 -5.98845661120760e-02 1.35065196540736e-03
1204 8.92785427938786e-01 -5.98848251941651e-02 1.33912202912149e-03
1205 8.92606903466555e-01 -5.98850867866615e-02 1.32737394385902e-03
1206 8.92428393893345e-01 -5.98853508902717e-02 1.31540166683861e-03
1207 8.92249899914956e-01 -5.98856175056707e-02 1.30319915655197e-03
1208 8.92071422250654e-01 -5.98858866334995e-02 1.29076037294363e-03
1209 8.91892961643772e-01 -5.98861582743625e-02 1.27807927760748e-03
1210 8.91714518862322e-01 -5.98864324288249e-02 1.26514983400051e-03
1211 8.91536094699598e-01 -5.98867090974099e-02 1.25196600767395e-03
1212 8.91357689974778e-01 -5.98869882805959e-02 1.23852176652255e-03
1213 8.91179305533526e-01 -5.98872699788138e-02 1.22481108105218e-03
1214 8.91000942248587e-01 -5.98875541924443e-02 1.21082792466626e-03
1215 8.90822600031766e-01 -5.98878409058030e-02 1.19657859136083e-03
1216 8.90644278597815e-01 -5.98881300833182e-02 1.18207156731507e-03
1217 8.90465980142406e-01 -5.98884217153162e-02 1.16728488877984e-03
1218 8.90287707022136e-01 -5.98887157927225e-02 1.15219591699212e-03
1219 8.90109461709383e-01 -5.98890123063219e-02 1.13678201788570e-03
1220 8.89931246801001e-01 -5.98893112467354e-02 1.12102056283783e-03
1221 8.89753065026998e-01 -5.98896126043966e-02 1.10488892974798e-03
1222 8.89574919259190e-01 -5.98899163695275e-02 1.08836450447184e-03
1223 8.89396812519825e-01 -5.98902225321140e-02 1.07142468263369e-03
1224 8.89218747990161e-01 -5.98905310818799e-02 1.05404687184008e-03
1225 8.89040729019012e-01 -5.98908420082616e-02 1.03620849431791e-03
1226 8.88862759131225e-01 -5.98911553003813e-02 1.01788698999937e-03
1227 8.88684842036096e-01 -5.98914709470197e-02 9.99059820076488e-04
1228 8.88506981635704e-01 -5.98917889365888e-02 9.79704471047038e-04
1229 8.88329182033156e-01 -5.98921092571034e-02 9.59798459273762e-04
1230 8.88151447540715e-01 -5.98924318961533e-02 9.39319336077842e-04
1231 8.87973782687813e-01 -5.98927568408738e-02 9.18244693387127e-04
1232 8.87796192228911e-01 -5.98930840779166e-02 8.96552169958795e-04
1233 8.87618681151200e-01 -5.98934135934206e-02 8.74219458195149e-04
1234 8.87441252956141e-01 -5.98937453971741e-02 8.51237589138033e-04
1235 8.87263919804003e-01 -5.98940795024244e-02 8.27533878927043e-04
1236 8.87086703363132e-01 -5.98944158831919e-02 8.02973249415798e-04
1237 8.86909627323628e-01 -5.98947545098612e-02 7.77420495513314e-04
1238 8.86732717676403e-01 -5.98950953486755e-02 7.50740613184425e-04
1239 8.86556003022097e-01 -5.98954383609749e-02 7.22798895197392e-04
1240 8.86379514873223e-01 -5.98957835024171e-02 6.93461068703887e-04
1241 8.86203287946546e-01 -5.98961307221857e-02 6.62593479445949e-04
1242 8.86027360441930e-01 -5.98964799621924e-02 6.30063327095860e-04
1243 8.85851772183293e-01 -5.98968311518110e-02 5.95749616434469e-04
1244 8.85676601220417e-01 -5.98971840429351e-02 5.59368565348345e-04
1245 8.85502035647058e-01 -5.98975381401349e-02 5.20190458555592e-04
1246 8.85328310905237e-01 -5.98978928607836e-02 4.77443713988896e-04
1247 8.85155710974349e-01 -5.98982475236747e-02 4.30366845360498e-04
1248 8.84984608676385e-01 -5.98986012510083e-02 3.78119881647133e-04
1249 8.84816189712989e-01 -5.98989513383658e-02 3.17836295374053e-04
1250 8.84652804899163e-01 -5.98992925739528e-02 2.45089969254163e-04
1251 8.84502278919433e-01 -5.98996080409906e-02 1.49082588569284e-04
1252 9.06821383129855e-01 -1.11210000000000e-01 -1.00507681917639e-04
1253 9.06896821589666e-01 -1.11210000000000e-01 -1.77480890231574e-04
1254 9.06986175999742e-01 -1.11210000000000e-01 -2.38213377825115e-04
1255 9.07081565453736e-01 -1.11210000000000e-01 -2.89060106423123e-04
1256 9.07180158838584e-01 -1.11210000000000e-01 -3.33419547517536e-04
1257 9.07280783961229e-01 -1.11210000000000e-01 -3.72969909676555e-04
1258 9.07382754717234e-01 -1.11210000000000e-01 -4.08920363180536e-04
1259 9.07485673406481e-01 -1.11210000000000e-01 -4.42063657419983e-04
1260 9.07589323525823e-01 -1.11210000000000e-01 -4.72846536250690e-04
1261 9.07693527132953e-01 -1.11210000000000e-01 -5.01702799442947e-04
1262 9.07798170166824e-01 -1.11210000000000e-01 -5.28923637654427e-04
1263 9.07903175334206e-01 -1.11210000000000e-01 -5.54713296331307e-04
1264 9.08008474300365e-01 -1.11210000000000e-01 -5.79276773762774e-04
1265 9.08114015001061e-01 -1.11210000000000e-01 -6.02780356462070e-04
1266 9.08219768826383e-01 -1.11210000000000e-01 -6.25305871648628e-04
1267 9.08325711749490e-01 -1.11210000000000e-01 -6.46924822024605e-04
1268 9.08431821618262e-01 -1.11210000000000e-01 -6.67709151364265e-04
1269 9.08538078018015e-01 -1.11210000000000e-01 -6.87731133960944e-04
1270 9.08644462127680e-01 -1.11210000000000e-01 -7.07063289051189e-04
1271 9.08750957694856e-01 -1.11210000000000e-01 -7.25771868461173e-04
1272 9.08857554574716e-01 -1.11210000000000e-01 -7.43894368194369e-04
1273 9.08964244592934e-01 -1.11210000000000e-01 -7.61460320288189e-04
1274 9.09071020041180e-01 -1.11210000000000e-01 -7.78499364451325e-04
1275 9.09177873654243e-01 -1.11210000000000e-01 -7.95041229762119e-04
1276 9.09284798586533e-01 -1.11210000000000e-01 -8.11115718571586e-04
1277 9.09391788387997e-01 -1.11210000000000e-01 -8.26752692871852e-04
1278 9.09498837041399e-01 -1.11210000000000e-01 -8.41981624312890e-04
1279 9.09605939930826e-01 -1.11210000000000e-01 -8.56824356374272e-04
1280 9.09713093564042e-01 -1.11210000000000e-01 -8.71296241988634e-04
1281 9.09820294637114e-01 -1.11210000000000e-01 -8.85412454025566e-04
1282 9.09927539998392e-01 -1.11210000000000e-01 -8.99188189218069e-04
1283 9.10034826642265e-01 -1.11210000000000e-01 -9.12638664594339e-04
1284 9.10142151702839e-01 -1.11210000000000e-01 -9.25779114346002e-04
1285 9.10249512447543e-01 -1.11210000000000e-01 -9.38624787114247e-04
1286 9.10356906270674e-01 -1.11210000000000e-01 -9.51190943674466e-04
1287 9.10464330825297e-01 -1.11210000000000e-01 -9.63491639954845e-04
1288 9.10571784402720e-01 -1.11210000000000e-01 -9.75536187255922e-04
1289 9.10679265489520e-01 -1.11210000000000e-01 -9.87332743737162e-04
1290 9.10786772628985e-01 -1.11210000000000e-01 -9.98889476039971e-04
1291 9.10894304419311e-01 -1.11210000000000e-01 -1.01021455829891e-03
1292 9.11001859511794e-01 -1.11210000000000e-01 -1.02131617124071e-03
1293 9.11109436609001e-01 -1.11210000000000e-01 -1.03220250136829e-03
1294 9.11217034462938e-01 -1.11210000000000e-01 -1.04288174022683e-03
1295 9.11324651873191e-01 -1.11210000000000e-01 -1.05336208374912e-03
1296 9.11432287687190e-01 -1.11210000000000e-01 -1.06365170936203e-03
1297 9.11539940967781e-01 -1.11210000000000e-01 -1.07375696325450e-03
1298 9.11647611103510e-01 -1.11210000000000e-01 -1.08368102182027e-03
1299 9.11755297527769e-01 -1.11210000000000e-01 -1.09342674822962e-03
1300 9.11862999688261e-01 -1.11210000000000e-01 -1.10299700755753e-03
1301 9.11970717046779e-01 -1.11210000000000e-01 -1.11239466662281e-03
1302 9.12078449078988e-01 -1.11210000000000e-01 -1.12162259383526e-03
1303 9.12186195274200e-01 -1.11210000000000e-01 -1.13068365905054e-03
1304 9.12293955135153e-01 -1.11210000000000e-01 -1.13958073343267e-03
1305 9.12401728177784e-01 -1.11210000000000e-01 -1.14831668932418e-03
1306 9.12509513931005e-01 -1.11210000000000e-01 -1.15689440012353e-03
1307 9.12617311936477e-01 -1.11210000000000e-01 -1.16531674016995e-03
1308 9.12725121748377e-01 -1.11210000000000e-01 -1.17358658463535e-03
1309 9.12832942933175e-01 -1.11210000000000e-01 -1.18170680942335e-03
1310 9.12940775069403e-01 -1.11210000000000e-01 -1.18968029107512e-03
1311 9.13048617747421e-01 -1.11210000000000e-01 -1.19750990668211e-03
1312 9.13156470569192e-01 -1.11210000000000e-01 -1.20519853380533e-03
1313 9.13264333148046e-01 -1.11210000000000e-01 -1.21274905040120e-03
1314 9.13372205108450e-01 -1.11210000000000e-01 -1.22016433475381e-03
1315 9.13480086085774e-01 -1.11210000000000e-01 -1.22744726541339e-03
1316 9.13587975726061e-01 -1.11210000000000e-01 -1.23460072114091e-03
1317 9.13695873685790e-01 -1.11210000000000e-01 -1.24162758085867e-03
1318 9.13803779631712e-01 -1.11210000000000e-01 -1.24853072258290e-03
1319 9.13911693264036e-01 -1.11210000000000e-01 -1.25531264920876e-03
1320 9.14019614349079e-01 -1.11210000000000e-01 -1.26197493125439e-03
1321 9.14127542667078e-01 -1.11210000000000e-01 -1.26851899737687e-03
1322 9.14235478002970e-01 -1.11210000000000e-01 -1.27494627684198e-03
1323 9.14343420146341e-01 -1.11210000000000e-01 -1.28125819948685e-03
1324 9.14451368891372e-01 -1.11210000000000e-01 -1.28745619568396e-03
1325 9.14559324036779e-01 -1.11210000000000e-01 -1.29354169630633e-03
1326 9.14667285385761e-01 -1.11210000000000e-01 -1.29951613269409e-03
1327 9.14775252745947e-01 -1.11210000000000e-01 -1.30538093662217e-03
1328 9.14883225929336e-01 -1.11210000000000e-01 -1.31113754026934e-03
1329 9.14991204752243e-01 -1.11210000000000e-01 -1.31678737618841e-03
1330 9.15099189035245e-01 -1.11210000000000e-01 -1.32233187727758e-03
1331 9.15207178603120e-01 -1.11210000000000e-01 -1.32777247675311e-03
1332 9.15315173284798e-01 -1.11210000000000e-01 -1.33311060812308e-03
1333 9.15423172913298e-01 -1.11210000000000e-01 -1.33834770516226e-03
1334 9.15531177325675e-01 -1.11210000000000e-01 -1.34348520188828e-03
1335 9.15639186362962e-01 -1.11210000000000e-01 -1.34852453253872e-03
1336 9.15747199870114e-01 -1.11210000000000e-01 -1.35346713154951e-03
1337 9.15855217695952e-01 -1.11210000000000e-01 -1.35831443353430e-03
1338 9.15963239693102e-01 -1.11210000000000e-01 -1.36306787326493e-03
1339 9.16071265717946e-01 -1.11210000000000e-01 -1.36772888565301e-03
1340 9.16179295630555e-01 -1.11210000000000e-01 -1.37229890573249e-03
1341 9.16287329294639e-01 -1.11210000000000e-01 -1.37677936864333e-03
1342 9.16395366577487e-01 -1.11210000000000e-01 -1.38117170961610e-03
1343 9.16503407349911e-01 -1.11210000000000e-01 -1.38547736395767e-03
1344 9.16611451491798e-01 -1.11210000000000e-01 -1.38969762258341e-03
1345 9.16719498914263e-01 -1.11210000000000e-01 -1.39383304064318e-03
1346 9.16827549538535e-01 -1.11210000000000e-01 -1.39788393964960e-03
1347 9.16935603286608e-01 -1.11210000000000e-01 -1.40185064107810e-03
1348 9.17043660081232e-01 -1.11210000000000e-01 -1.40573346645972e-03
1349 9.17151719845910e-01 -1.11210000000000e-01 -1.40953273737775e-03
1350 9.17259782504897e-01 -1.11210000000000e-01 -1.41324877546455e-03
1351 9.17367847983194e-01 -1.11210000000000e-01 -1.41688190239830e-03
1352 9.17475916206547e-01 -1.11210000000000e-01 -1.42043243989988e-03
1353 9.17583987101446e-01 -1.11210000000000e-01 -1.42390070972974e-03
1354 9.17692060595117e-01 -1.11210000000000e-01 -1.42728703368489e-03
1355 9.17800136615524e-01 -1.11210000000000e-01 -1.43059173359583e-03
1356 9.17908215091365e-01 -1.11210000000000e-01 -1.43381513132365e-03
1357 9.18016295952067e-01 -1.11210000000000e-01 -1.43695754875706e-03
1358 9.18124379127784e-01 -1.11210000000000e-01 -1.44001930780954e-03
1359 9.18232464549398e-01 -1.11210000000000e-01 -1.44300073041654e-03
1360 9.18340552148507e-01 -1.11210000000000e-01 -1.44590213853265e-03
1361 9.18448641857434e-01 -1.11210000000000e-01 -1.44872385412893e-03
1362 9.18556733609212e-01 -1.11210000000000e-01 -1.45146619919015e-03
1363 9.18664827337591e-01 -1.11210000000000e-01 -1.45412949571223e-03
1364 9.18772922977029e-01 -1.11210000000000e-01 -1.45671406569955e-03
1365 9.18881020462690e-01 -1.11210000000000e-01 -1.45922023116250e-03
1366 9.18989119730445e-01 -1.11210000000000e-01 -1.46164831411487e-03
1367 9.19097220716862e-01 -1.11210000000000e-01 -1.46399863657148e-03
1368 9.19205323359211e-01 -1.11210000000000e-01 -1.46627152054570e-03
1369 9.19313427595453e-01 -1.11210000000000e-01 -1.46846728804709e-03
1370 9.19421533364244e-01 -1.11210000000000e-01 -1.47058626107908e-03
1371 9.19529640604940e-01 -1.11210000000000e-01 -1.47262876096475e-03
1372 9.19637749257777e-01 -1.11210000000000e-01 -1.47459509820178e-03
1373 9.19745859263805e-01 -1.11210000000000e-01 -1.47648557457329e-03
1374 9.19853970564714e-01 -1.11210000000000e-01 -1.47830049165184e-03
1375 9.19962083102826e-01 -1.11210000000000e-01 -1.48004015104717e-03
1376 9.20070196821098e-01 -1.11210000000000e-01 -1.48170485440371e-03
1377 9.20178311663111e-01 -1.11210000000000e-01 -1.48329490339807e-03
1378 9.20286427573078e-01 -1.11210000000000e-01 -1.48481059973668e-03
1379 9.20394544495830e-01 -1.11210000000000e-01 -1.48625224515334e-03
1380 9.20502662376824e-01 -1.11210000000000e-01 -1.48762014140692e-03
1381 9.20610781162132e-01 -1.11210000000000e-01 -1.48891459027900e-03
1382 9.20718900798444e-01 -1.11210000000000e-01 -1.49013589357164e-03
1383 9.20827021233064e-01 -1.11210000000000e-01 -1.49128435310510e-03
1384 9.20935142413906e-01 -1.11210000000000e-01 -1.49236027071564e-03
1385 9.21043264289493e-01 -1.11210000000000e-01 -1.49336394825337e-03
1386 9.21151386808954e-01 -1.11210000000000e-01 -1.49429568758010e-03
1387 9.21259509922020e-01 -1.11210000000000e-01 -1.49515579056724e-03
1388 9.21367633579024e-01 -1.11210000000000e-01 -1.49594455909376e-03
1389 9.21475757730899e-01 -1.11210000000000e-01 -1.49666229504413e-03
1390 9.21583882329169e-01 -1.11210000000000e-01 -1.49730930030636e-03
1391 9.21692007325956e-01 -1.11210000000000e-01 -1.49788587677002e-03
1392 9.21800132673969e-01 -1.11210000000000e-01 -1.49839232632433e-03
1393 9.21908258326506e-01 -1.11210000000000e-01 -1.49882895085628e-03
1394 9.22016384237451e-01 -1.11210000000000e-01 -1.49919605224876e-03
1395 9.22124510361270e-01 -1.11210000000000e-01 -1.49949393237877e-03
1396 9.22232636653008e-01 -1.11210000000000e-01 -1.49972289311561e-03
1397 9.22340763068289e-01 -1.11210000000000e-01 -1.49988323631912e-03
1398 9.22448889563312e-01 -1.11210000000000e-01 -1.49997526383804e-03
1399 9.22557016094846e-01 -1.11210000000000e-01 -1.49999927719691e-03
1400 9.22665142620151e-01 -1.11210000000000e-01 -1.49995542787239e-03
1401 9.22773269096377e-01 -1.11210000000000e-01 -1.49984347687652e-03
1402 9.22881395480126e-01 -1.11210000000000e-01 -1.49966312250213e-03
1403 9.22989521727432e-01 -1.11210000000000e-01 -1.49941406302973e-03
1404 9.23097647793750e-01 -1.11210000000000e-01 -1.49909599672924e-03
1405 9.23205773633959e-01 -1.11210000000000e-01 -1.49870862186166e-03
1406 9.23313899202355e-01 -1.11210000000000e-01 -1.49825163668089e-03
1407 9.23422024452655e-01 -1.11210000000000e-01 -1.49772473943546e-03
1408 9.23530149337986e-01 -1.11210000000000e-01 -1.49712762837039e-03
1409 9.23638273810890e-01 -1.11210000000000e-01 -1.49646000172906e-03
1410 9.23746397823315e-01 -1.11210000000000e-01 -1.49572155775507e-03
1411 9.23854521326618e-01 -1.11210000000000e-01 -1.49491199469423e-03
1412 9.23962644271558e-01 -1.11210000000000e-01 -1.49403101079645e-03
1413 9.24070766608298e-01 -1.11210000000000e-01 -1.49307830431781e-03
1414 9.24178888286396e-01 -1.11210000000000e-01 -1.49205357352254e-03
1415 9.24287009254809e-01 -1.11210000000000e-01 -1.49095651668514e-03
1416 9.24395129461888e-01 -1.11210000000000e-01 -1.48978683209246e-03
1417 9.24503248855371e-01 -1.11210000000000e-01 -1.48854421804585e-03
1418 9.24611367382391e-01 -1.11210000000000e-01 -1.48722837286333e-03
1419 9.24719484989460e-01 -1.11210000000000e-01 -1.48583899488183e-03
1420 9.24827601622479e-01 -1.11210000000000e-01 -1.48437578245942e-03
1421 9.24935717226727e-01 -1.11210000000000e-01 -1.48283843397760e-03
1422 9.25043831746861e-01 -1.11210000000000e-01 -1.48122664784362e-03
1423 9.25151945126916e-01 -1.11210000000000e-01 -1.47954012249287e-03
1424 9.25260057310298e-01 -1.11210000000000e-01 -1.47777855639124e-03
1425 9.25368168239786e-01 -1.11210000000000e-01 -1.47594164803759e-03
1426 9.25476277857526e-01 -1.11210000000000e-01 -1.47402909596618e-03
1427 9.25584386105029e-01 -1.11210000000000e-01 -1.47204059874922e-03
1428 9.25692492923147e-01 -1.11210000000000e-01 -1.46997585372563e-03
1429 9.25800598251839e-01 -1.11210000000000e-01 -1.46783454577559e-03
1430 9.25908702030250e-01 -1.11210000000000e-01 -1.46561635269987e-03
1431 9.26016804196832e-01 -1.11210000000000e-01 -1.46332095221066e-03
1432 9.26124904689343e-01 -1.11210000000000e-01 -1.46094802201468e-03
1433 9.26233003444846e-01 -1.11210000000000e-01 -1.45849723981551e-03
1434 9.26341100399704e-01 -1.11210000000000e-01 -1.45596828331597e-03
1435 9.26449195489577e-01 -1.11210000000000e-01 -1.45336083022061e-03
1436 9.26557288649420e-01 -1.11210000000000e-01 -1.45067455823810e-03
1437 9.26665379813480e-01 -1.11210000000000e-01 -1.44790914508384e-03
1438 9.26773468915292e-01 -1.11210000000000e-01 -1.44506426848246e-03
1439 9.26881555887677e-01 -1.11210000000000e-01 -1.44213960617048e-03
1440 9.26989640662740e-01 -1.11210000000000e-01 -1.43913483589894e-03
1441 9.27097723171864e-01 -1.11210000000000e-01 -1.43604963543610e-03
1442 9.27205803345710e-01 -1.11210000000000e-01 -1.43288368257020e-03
1443 9.27313881114212e-01 -1.11210000000000e-01 -1.42963665511226e-03
1444 9.27421956406576e-01 -1.11210000000000e-01 -1.42630823089892e-03
1445 9.27530029151276e-01 -1.11210000000000e-01 -1.42289808779530e-03
1446 9.27638099276050e-01 -1.11210000000000e-01 -1.41940590369796e-03
1447 9.27746166707900e-01 -1.11210000000000e-01 -1.41583135653787e-03
1448 9.27854231373086e-01 -1.11210000000000e-01 -1.41217412428343e-03
1449 9.27962293197125e-01 -1.11210000000000e-01 -1.40843388494357e-03
1450 9.28070352104789e-01 -1.11210000000000e-01 -1.40461031657083e-03
1451 9.28178408020098e-01 -1.11210000000000e-01 -1.40070309726455e-03
1452 9.28286460866322e-01 -1.11210000000000e-01 -1.39671190517408e-03
1453 9.28394510565976e-01 -1.11210000000000e-01 -1.39263641850203e-03
1454 9.28502557040816e-01 -1.11210000000000e-01 -1.38847631550763e-03
1455 9.28610600211461e-01 -1.11210000000000e-01 -1.38423126497166e-03
1456 9.28718639980008e-01 -1.11210000000000e-01 -1.37990049465372e-03
1457 9.28826676221511e-01 -1.11210000000000e-01 -1.37548261505197e-03
1458 9.28934708805746e-01 -1.11210000000000e-01 -1.37097619069215e-03
1459 9.29042737598949e-01 -1.11210000000000e-01 -1.36637978618034e-03
1460 9.29150762463760e-01 -1.11210000000000e-01 -1.36169196621759e-03
1461 9.29258783259164e-01 -1.11210000000000e-01 -1.35691129561562e-03
1462 9.29366799840435e-01 -1.11210000000000e-01 -1.35203633931348e-03
1463 9.29474812059079e-01 -1.11210000000000e-01 -1.34706566239520e-03
1464 9.29582819762777e-01 -1.11210000000000e-01 -1.34199783010863e-03
1465 9.29690822795326e-01 -1.11210000000000e-01 -1.33683140788523e-03
1466 9.29798820996586e-01 -1.11210000000000e-01 -1.33156496136099e-03
1467 9.29906814202420e-01 -1.11210000000000e-01 -1.32619705639847e-03
1468 9.30014802244639e-01 -1.11210000000000e-01 -1.32072625910989e-03
1469 9.30122784950945e-01 -1.11210000000000e-01 -1.31515113588144e-03
1470 9.30230762144875e-01 -1.11210000000000e-01 -1.30947025339865e-03
1471 9.30338733645744e-01 -1.11210000000000e-01 -1.30368217867300e-03
1472 9.30446699268591e-01 -1.11210000000000e-01 -1.29778547906967e-03
1473 9.30554658824120e-01 -1.11210000000000e-01 -1.29177872233645e-03
1474 9.30662612118646e-01 -1.11210000000000e-01 -1.28566047663396e-03
1475 9.30770558954042e-01 -1.11210000000000e-01 -1.27942931056695e-03
1476 9.30878499127678e-01 -1.11210000000000e-01 -1.27308379321699e-03
1477 9.30986432432370e-01 -1.11210000000000e-01 -1.26662249417629e-03
1478 9.31094358656326e-01 -1.11210000000000e-01 -1.26004398358284e-03
1479 9.31202277583086e-01 -1.11210000000000e-01 -1.25334683215688e-03
1480 9.31310188991438e-01 -1.11210000000000e-01 -1.24652961064742e-03
1481 9.31418092632796e-01 -1.11210000000000e-01 -1.23959054045680e-03
1482 9.31525988191034e-01 -1.11210000000000e-01 -1.23252690358516e-03
1483 9.31633875330192e-01 -1.11210000000000e-01 -1.22533582603758e-03
1484 9.31741753704052e-01 -1.11210000000000e-01 -1.21801443394888e-03
1485 9.31849622955912e-01 -1.11210000000000e-01 -1.21055985362877e-03
1486 9.31957482718348e-01 -1.11210000000000e-01 -1.20296921161295e-03
1487 9.32065332612983e-01 -1.11210000000000e-01 -1.19523963472018e-03
1488 9.32173172250257e-01 -1.11210000000000e-01 -1.18736825011552e-03
1489 9.32281001229197e-01 -1.11210000000000e-01 -1.17935218537976e-03
1490 9.32388819137184e-01 -1.11210000000000e-01 -1.17118856858541e-03
1491 9.32496625549722e-01 -1.11210000000000e-01 -1.16287452837904e-03
1492 9.32604420030214e-01 -1.11210000000000e-01 -1.15440719407043e-03
1493 9.32712202129727e-01 -1.11210000000000e-01 -1.14578369572844e-03
1494 9.32819971386769e-01 -1.11210000000000e-01 -1.13700116428378e-03
1495 9.32927727327061e-01 -1.11210000000000e-01 -1.12805673163894e-03
1496 9.33035469463311e-01 -1.11210000000000e-01 -1.11894753078512e-03
1497 9.33143197294986e-01 -1.11210000000000e-01 -1.10967069592663e-03
1498 9.33250910308096e-01 -1.11210000000000e-01 -1.10022336261260e-03
1499 9.33358607974963e-01 -1.11210000000000e-01 -1.09060266787629e-03
1500 9.33466289754006e-01 -1.11210000000000e-01 -1.08080575038203e-03
1501 9.33573955089520e-01 -1.11210000000000e-01 -1.07082975057999e-03
1502 9.33681603411458e-01 -1.11210000000000e-01 -1.06067181086878e-03
1503 9.33789234048750e-01 -1.11210000000000e-01 -1.05032818014239e-03
1504 9.33896845958885e-01 -1.11210000000000e-01 -1.03979151515696e-03
1505 9.34004437970010e-01 -1.11210000000000e-01 -1.02905357432487e-03
1506 9.34112008863770e-01 -1.11210000000000e-01 -1.01810612004918e-03
1507 9.34219557373425e-01 -1.11210000000000e-01 -1.00694091932798e-03
1508 9.34327082181983e-01 -1.11210000000000e-01 -9.95549744436779e-04
1509 9.34434581920351e-01 -1.11210000000000e-01 -9.83924373691707e-04
1510 9.34542055165491e-01 -1.11210000000000e-01 -9.72056592296668e-04
1511 9.34649500438592e-01 -1.11210000000000e-01 -9.59938193277218e-04
1512 9.34756916199973e-01 -1.11210000000000e-01 -9.47560950218420e-04
1513 9.34864300565610e-01 -1.11210000000000e-01 -9.34914237948815e-04
1514 9.34971651064329e-01 -1.11210000000000e-01 -9.21983228632709e-04
1515 9.35078965054064e-01 -1.11210000000000e-01 -9.08752680362828e-04
1516 9.35186239763979e-01 -1.11210000000000e-01 -8.95207363992685e-04
1517 9.35293472288054e-01 -1.11210000000000e-01 -8.81332065565460e-04
1518 9.35400659578715e-01 -1.11210000000000e-01 -8.67111589146997e-04
1519 9.35507798440550e-01 -1.11210000000000e-01 -8.52530760081662e-04
1520 9.35614885524114e-01 -1.11210000000000e-01 -8.37574428689450e-04
1521 9.35721917179722e-01 -1.11210000000000e-01 -8.22226505537313e-04
1522 9.35828888272642e-01 -1.11210000000000e-01 -8.06462076532581e-04
1523 9.35935792657698e-01 -1.11210000000000e-01 -7.90251520598260e-04
1524 9.36042623808105e-01 -1.11210000000000e-01 -7.73565222545595e-04
1525 9.36149374797834e-01 -1.11210000000000e-01 -7.56373630109173e-04
1526 9.36256038278071e-01 -1.11210000000000e-01 -7.38647268130292e-04
1527 9.36362606454264e-01 -1.11210000000000e-01 -7.20356755203581e-04
1528 9.36469071015076e-01 -1.11210000000000e-01 -7.01472551409982e-04
1529 9.36575420153760e-01 -1.11210000000000e-01 -6.81948991707379e-04
1530 9.36681636446156e-01 -1.11210000000000e-01 -6.61715383762367e-04
1531 9.36787700597820e-01 -1.11210000000000e-01 -6.40699070566894e-04
1532 9.36893591675525e-01 -1.11210000000000e-01 -6.18827663924511e-04
1533 9.36999286964409e-01 -1.11210000000000e-01 -5.96029137525722e-04
1534 9.37104761830137e-01 -1.11210000000000e-01 -5.72231936325959e-04
1535 9.37209982729911e-01 -1.11210000000000e-01 -5.47336425636847e-04
1536 9.37314890036402e-01 -1.11210000000000e-01 -5.21151832460383e-04
1537 9.37419412140931e-01 -1.11210000000000e-01 -4.93470626331124e-04
1538 9.37523465798243e-01 -1.11210000000000e-01 -4.64078806952559e-04
1539 9.37626917187950e-01 -1.11210000000000e-01 -4.32635381349717e-04
1540 9.37729579781135e-01 -1.11210000000000e-01 -3.98708009598885e-04
1541 9.37831215363024e-01 -1.11210000000000e-01 -3.61822790934908e-04
1542 9.37931335145641e-01 -1.11210000000000e-01 -3.21013841148671e-04
1543 9.38029188713323e-01 -1.11210000000000e-01 -2.75051077588144e-04
1544 9.38123233348320e-01 -1.11210000000000e-01 -2.21778029557360e-04
1545 9.38209722517984e-01 -1.11210000000000e-01 -1.57102620597904e-04
1546 9.38277307014240e-01 -1.11210000000000e-01 -7.34809595378931e-05
1547 9.38292784252331e-01 -1.11210000000000e-01 3.13020515169137e-05
1548 9.38241669284870e-01 -1.11210000000000e-01 1.25240209766342e-04
1549 9.38160646377738e-01 -1.11210000000000e-01 1.96516177214411e-04
1550 9.38069050575783e-01 -1.11210000000000e-01 2.53862699040034e-04
1551 9.37876123615269e-01 -1.11210000000000e-01 3.44208689246336e-04
1552 9.37777997644879e-01 -1.11210000000000e-01 3.81652340526329e-04
1553 9.37678719864887e-01 -1.11210000000000e-01 4.15934021345767e-04
1554 9.37578594230147e-01 -1.11210000000000e-01 4.47657343860749e-04
1555 9.37477810649371e-01 -1.11210000000000e-01 4.77226716732701e-04
1556 9.37376525671503e-01 -1.11210000000000e-01 5.05032153459429e-04
1557 9.37274835610814e-01 -1.11210000000000e-01 5.31318512747840e-04
1558 9.37172810100146e-01 -1.11210000000000e-01 5.56272100925918e-04
1559 9.37070511130550e-01 -1.11210000000000e-01 5.80080619651951e-04
1560 9.36967985326417e-01 -1.11210000000000e-01 6.02892934292641e-04
1561 9.36865258522151e-01 -1.11210000000000e-01 6.24782582785486e-04
1562 9.36762352762881e-01 -1.11210000000000e-01 6.45815123364490e-04
1563 9.36659288420881e-01 -1.11210000000000e-01 6.66056509131322e-04
1564 9.36556084314170e-01 -1.11210000000000e-01 6.85572991608892e-04
1565 9.36452757830710e-01 -1.11210000000000e-01 7.04431045383537e-04
1566 9.36349324418919e-01 -1.11210000000000e-01 7.22693665868052e-04
1567 9.36245794076825e-01 -1.11210000000000e-01 7.40398605946831e-04
1568 9.36142174382503e-01 -1.11210000000000e-01 7.57572949946144e-04
1569 9.36038472488297e-01 -1.11210000000000e-01 7.74243842478835e-04
1570 9.35934695147471e-01 -1.11210000000000e-01 7.90438511271097e-04
1571 9.35830848734395e-01 -1.11210000000000e-01 8.06184252713991e-04
1572 9.35726939265245e-01 -1.11210000000000e-01 8.21508419514068e-04
1573 9.35622972416512e-01 -1.11210000000000e-01 8.36438392033695e-04
1574 9.35518953013232e-01 -1.11210000000000e-01 8.50997739809241e-04
1575 9.35414884453489e-01 -1.11210000000000e-01 8.65201492416828e-04
1576 9.35310769824675e-01 -1.11210000000000e-01 8.79063548448938e-04
1577 9.35206612076251e-01 -1.11210000000000e-01 8.92597829204507e-04
1578 9.35102414025109e-01 -1.11210000000000e-01 9.05818275432703e-04
1579 9.34998178361005e-01 -1.11210000000000e-01 9.18738844450390e-04
1580 9.34893907652068e-01 -1.11210000000000e-01 9.31373507618309e-04
1581 9.34789604350352e-01 -1.11210000000000e-01 9.43736248160666e-04
1582 9.34685270789763e-01 -1.11210000000000e-01 9.55840992566809e-04
1583 9.34580908895578e-01 -1.11210000000000e-01 9.67698989911571e-04
1584 9.34476520117349e-01 -1.11210000000000e-01 9.79317954710430e-04
1585 9.34372105824788e-01 -1.11210000000000e-01 9.90705367347935e-04
1586 9.34267667337624e-01 -1.11210000000000e-01 1.00186871547224e-03
1587 9.34163205927160e-01 -1.11210000000000e-01 1.01281549316318e-03
1588 9.34058722817846e-01 -1.11210000000000e-01 1.02355320017354e-03
1589 9.33954219188860e-01 -1.11210000000000e-01 1.03408934124091e-03
1590 9.33849696175699e-01 -1.11210000000000e-01 1.04443142546816e-03
1591 9.33745154871783e-01 -1.11210000000000e-01 1.05458696576985e-03
1592 9.33640596325355e-01 -1.11210000000000e-01 1.06456342869647e-03
1593 9.33536021358135e-01 -1.11210000000000e-01 1.07436627389618e-03
1594 9.33431430519288e-01 -1.11210000000000e-01 1.08399830632974e-03
1595 9.33326824327562e-01 -1.11210000000000e-01 1.09346215051559e-03
1596 9.33222203288965e-01 -1.11210000000000e-01 1.10276043266322e-03
1597 9.33117567896961e-01 -1.11210000000000e-01 1.11189578053420e-03
1598 9.33012918632658e-01 -1.11210000000000e-01 1.12087082330988e-03
1599 9.32908255965002e-01 -1.11210000000000e-01 1.12968819146560e-03
1600 9.32803580350968e-01 -1.11210000000000e-01 1.13835051665135e-03
1601 9.32698892235755e-01 -1.11210000000000e-01 1.14686043157880e-03
1602 9.32594192052983e-01 -1.11210000000000e-01 1.15522056991454e-03
1603 9.32489480224887e-01 -1.11210000000000e-01 1.16343356617945e-03
1604 9.32384757162514e-01 -1.11210000000000e-01 1.17150205565414e-03
1605 9.32280023265923e-01 -1.11210000000000e-01 1.17942867429033e-03
1606 9.32175278924380e-01 -1.11210000000000e-01 1.18721605862799e-03
1607 9.32070524516560e-01 -1.11210000000000e-01 1.19486684571829e-03
1608 9.31965760410746e-01 -1.11210000000000e-01 1.20238367305211e-03
1609 9.31860986965027e-01 -1.11210000000000e-01 1.20976917849412e-03
1610 9.31756204527501e-01 -1.11210000000000e-01 1.21702600022217e-03
1611 9.31651413436473e-01 -1.11210000000000e-01 1.22415677667206e-03
1612 9.31546614020661e-01 -1.11210000000000e-01 1.23116414648747e-03
1613 9.31441806599393e-01 -1.11210000000000e-01 1.23805074847498e-03
1614 9.31336991482811e-01 -1.11210000000000e-01 1.24481922156406e-03
1615 9.31232168968884e-01 -1.11210000000000e-01 1.25147215425004e-03
1616 9.31127339301840e-01 -1.11210000000000e-01 1.25801141054741e-03
1617 9.31022502686487e-01 -1.11210000000000e-01 1.26443831271447e-03
1618 9.30917659322580e-01 -1.11210000000000e-01 1.27075417049430e-03
1619 9.30812809405709e-01 -1.11210000000000e-01 1.27696029415935e-03
1620 9.30707953127339e-01 -1.11210000000000e-01 1.28305799447963e-03
1621 9.30603090674863e-01 -1.11210000000000e-01 1.28904858269182e-03
1622 9.30498222231647e-01 -1.11210000000000e-01 1.29493337046962e-03
1623 9.30393347977079e-01 -1.11210000000000e-01 1.30071366989501e-03
1624 9.30288468086614e-01 -1.11210000000000e-01 1.30639079343069e-03
1625 9.30183582731828e-01 -1.11210000000000e-01 1.31196605389341e-03
1626 9.30078692080458e-01 -1.11210000000000e-01 1.31744076442848e-03
1627 9.29973796296460e-01 -1.11210000000000e-01 1.32281623848514e-03
1628 9.29868895540049e-01 -1.11210000000000e-01 1.32809378979302e-03
1629 9.29763989967751e-01 -1.11210000000000e-01 1.33327473233958e-03
1630 9.29659079732454e-01 -1.11210000000000e-01 1.33836038034845e-03
1631 9.29554164983453e-01 -1.11210000000000e-01 1.34335204825881e-03
1632 9.29449245866501e-01 -1.11210000000000e-01 1.34825105070569e-03
1633 9.29344322523859e-01 -1.11210000000000e-01 1.35305870250119e-03
1634 9.29239395094342e-01 -1.11210000000000e-01 1.35777631861662e-03
1635 9.29134463713371e-01 -1.11210000000000e-01 1.36240521416556e-03
1636 9.29029528513023e-01 -1.11210000000000e-01 1.36694670438784e-03
1637 9.28924589622076e-01 -1.11210000000000e-01 1.37140210463433e-03
1638 9.28819647166062e-01 -1.11210000000000e-01 1.37577273035270e-03
1639 9.28714701267319e-01 -1.11210000000000e-01 1.38005989707391e-03
1640 9.28609752045032e-01 -1.11210000000000e-01 1.38426492039968e-03
1641 9.28504799613668e-01 -1.11210000000000e-01 1.38838907436218e-03
1642 9.28399844063032e-01 -1.11210000000000e-01 1.39243306872967e-03
1643 9.28294885465904e-01 -1.11210000000000e-01 1.39639720704650e-03
1644 9.28189923894033e-01 -1.11210000000000e-01 1.40028178396308e-03
1645 9.28084959418491e-01 -1.11210000000000e-01 1.40408709418037e-03
1646 9.27979992109682e-01 -1.11210000000000e-01 1.40781343244706e-03
1647 9.27875022037339e-01 -1.11210000000000e-01 1.41146109355671e-03
1648 9.27770049270527e-01 -1.11210000000000e-01 1.41503037234500e-03
1649 9.27665073877647e-01 -1.11210000000000e-01 1.41852156368697e-03
1650 9.27560095926441e-01 -1.11210000000000e-01 1.42193496249432e-03
1651 9.27455115483987e-01 -1.11210000000000e-01 1.42527086371271e-03
1652 9.27350132616708e-01 -1.11210000000000e-01 1.42852956231922e-03
1653 9.27245147390374e-01 -1.11210000000000e-01 1.43171135331967e-03
1654 9.27140159870100e-01 -1.11210000000000e-01 1.43481653174612e-03
1655 9.27035170120355e-01 -1.11210000000000e-01 1.43784539265438e-03
1656 9.26930178204958e-01 -1.11210000000000e-01 1.44079823112149e-03
1657 9.26825184187085e-01 -1.11210000000000e-01 1.44367534224333e-03
1658 9.26720188129270e-01 -1.11210000000000e-01 1.44647702113219e-03
1659 9.26615190093408e-01 -1.11210000000000e-01 1.44920356291447e-03
1660 9.26510190140757e-01 -1.11210000000000e-01 1.45185526272832e-03
1661 9.26405188331940e-01 -1.11210000000000e-01 1.45443241572137e-03
1662 9.26300184726950e-01 -1.11210000000000e-01 1.45693531704849e-03
1663 9.26195179385149e-01 -1.11210000000000e-01 1.45936426186961e-03
1664 9.26090172365274e-01 -1.11210000000000e-01 1.46171954534753e-03
1665 9.25985163725437e-01 -1.11210000000000e-01 1.46400146264580e-03
1666 9.25880153523129e-01 -1.11210000000000e-01 1.46621030892662e-03
1667 9.25775141815224e-01 -1.11210000000000e-01 1.46834637934882e-03
1668 9.25670128657976e-01 -1.11210000000000e-01 1.47040996906581e-03
1669 9.25565114107021e-01 -1.11210000000000e-01 1.47240137287255e-03
1670 9.25460098217227e-01 -1.11210000000000e-01 1.47432087677094e-03
1671 9.25355081042705e-01 -1.11210000000000e-01 1.47616875757962e-03
1672 9.25250062636996e-01 -1.11210000000000e-01 1.47794529171807e-03
1673 9.25145043053073e-01 -1.11210000000000e-01 1.47965075563923e-03
1674 9.25040022343348e-01 -1.11210000000000e-01 1.48128542582735e-03
1675 9.24935000559672e-01 -1.11210000000000e-01 1.48284957879587e-03
1676 9.24829977753338e-01 -1.11210000000000e-01 1.48434349108529e-03
1677 9.24724953975082e-01 -1.11210000000000e-01 1.48576743926112e-03
1678 9.24619929275088e-01 -1.11210000000000e-01 1.48712169991182e-03
1679 9.24514903702987e-01 -1.11210000000000e-01 1.48840654964679e-03
1680 9.24409877307862e-01 -1.11210000000000e-01 1.48962226509439e-03
1681 9.24304850138246e-01 -1.11210000000000e-01 1.49076912289999e-03
1682 9.24199822242130e-01 -1.11210000000000e-01 1.49184739972405e-03
1683 9.24094793666960e-01 -1.11210000000000e-01 1.49285737224024e-03
1684 9.23989764459643e-01 -1.11210000000000e-01 1.49379931713355e-03
1685 9.23884734666547e-01 -1.11210000000000e-01 1.49467351109848e-03
1686 9.23779704333503e-01 -1.11210000000000e-01 1.49548023083726e-03
1687 9.23674673505809e-01 -1.11210000000000e-01 1.49621975305804e-03
1688 9.23569642228232e-01 -1.11210000000000e-01 1.49689235447318e-03
1689 9.23464610545007e-01 -1.11210000000000e-01 1.49749831179751e-03
1690 9.23359578499845e-01 -1.11210000000000e-01 1.49803790174668e-03
1691 9.23254546135928e-01 -1.11210000000000e-01 1.49851140103551e-03
1692 9.23149513495920e-01 -1.11210000000000e-01 1.49891908637632e-03
1693 9.23044480621961e-01 -1.11210000000000e-01 1.49926123447740e-03
1694 9.22939447555673e-01 -1.11210000000000e-01 1.49953812204139e-03
1695 9.22834414338164e-01 -1.11210000000000e-01 1.49975002576380e-03
1696 9.22729381010027e-01 -1.11210000000000e-01 1.49989722233144e-03
1697 9.22624347611342e-01 -1.11210000000000e-01 1.49997998842099e-03
1698 9.22519314181683e-01 -1.11210000000000e-01 1.49999859985675e-03
1699 9.22414280760204e-01 -1.11210000000000e-01 1.49995317291761e-03
1700 9.22309247386199e-01 -1.11210000000000e-01 1.49984347670931e-03
1701 9.22204214099452e-01 -1.11210000000000e-01 1.49966923468334e-03
1702 9.22099180940257e-01 -1.11210000000000e-01 1.49943017028018e-03
1703 9.21994147949421e-01 -1.11210000000000e-01 1.49912600693084e-03
1704 9.21889115168266e-01 -1.11210000000000e-01 1.49875646805833e-03
1705 9.21784082638628e-01 -1.11210000000000e-01 1.49832127707914e-03
1706 9.21679050402866e-01 -1.11210000000000e-01 1.49782015740487e-03
1707 9.21574018503857e-01 -1.11210000000000e-01 1.49725283244371e-03
1708 9.21468986985002e-01 -1.11210000000000e-01 1.49661902560212e-03
1709 9.21363955890229e-01 -1.11210000000000e-01 1.49591846028641e-03
1710 9.21258925263994e-01 -1.11210000000000e-01 1.49515085990446e-03
1711 9.21153895151280e-01 -1.11210000000000e-01 1.49431594786736e-03
1712 9.21048865597606e-01 -1.11210000000000e-01 1.49341344759115e-03
1713 9.20943836649025e-01 -1.11210000000000e-01 1.49244308249861e-03
1714 9.20838808352125e-01 -1.11210000000000e-01 1.49140457602096e-03
1715 9.20733780754036e-01 -1.11210000000000e-01 1.49029765159976e-03
1716 9.20628753902425e-01 -1.11210000000000e-01 1.48912203268870e-03
1717 9.20523727845507e-01 -1.11210000000000e-01 1.48787744275548e-03
1718 9.20418702632041e-01 -1.11210000000000e-01 1.48656360528371e-03
1719 9.20313678311332e-01 -1.11210000000000e-01 1.48518024377486e-03
1720 9.20208654933237e-01 -1.11210000000000e-01 1.48372708175022e-03
1721 9.20103632548167e-01 -1.11210000000000e-01 1.48220384275286e-03
1722 9.19998611207083e-01 -1.11210000000000e-01 1.48061025034972e-03
1723 9.19893590961507e-01 -1.11210000000000e-01 1.47894602813358e-03
1724 9.19788571863518e-01 -1.11210000000000e-01 1.47721089972522e-03
1725 9.19683553965754e-01 -1.11210000000000e-01 1.47540458877550e-03
1726 9.19578537321420e-01 -1.11210000000000e-01 1.47352681896753e-03
1727 9.19473521984285e-01 -1.11210000000000e-01 1.47157731401882e-03
1728 9.19368508008735e-01 -1.11210000000000e-01 1.46955579502164e-03
1729 9.19263495449988e-01 -1.11210000000000e-01 1.46746197036905e-03
1730 9.19158484363943e-01 -1.11210000000000e-01 1.46529554465359e-03
1731 9.19053474807115e-01 -1.11210000000000e-01 1.46305622246050e-03
1732 9.18948466836637e-01 -1.11210000000000e-01 1.46074370837049e-03
1733 9.18843460510260e-01 -1.11210000000000e-01 1.45835770696167e-03
1734 9.18738455886361e-01 -1.11210000000000e-01 1.45589792281171e-03
1735 9.18633453023942e-01 -1.11210000000000e-01 1.45336406049987e-03
1736 9.18528451982631e-01 -1.11210000000000e-01 1.45075582460921e-03
1737 9.18423452822689e-01 -1.11210000000000e-01 1.44807291972871e-03
1738 9.18318455605009e-01 -1.11210000000000e-01 1.44531505045557e-03
1739 9.18213460391121e-01 -1.11210000000000e-01 1.44248192139736e-03
1740 9.18108467243192e-01 -1.11210000000000e-01 1.43957323717442e-03
1741 9.18003476224031e-01 -1.11210000000000e-01 1.43658870242213e-03
1742 9.17898487397090e-01 -1.11210000000000e-01 1.43352802179332e-03
1743 9.17793500826466e-01 -1.11210000000000e-01 1.43039089996062e-03
1744 9.17688516576908e-01 -1.11210000000000e-01 1.42717704161900e-03
