11398 11400
1 9.37777074622150e-01 -3.60798246424927e-04 -5.98986826294113e-02
2 9.37972426927107e-01 -3.02325038158699e-04 -1.11209998254073e-01
3 8.54838758301289e-01 -6.76878684969177e-04 5.98959688645813e-02
4 8.08783758301289e-01 -6.76878684969177e-04 5.98959688645813e-02
5 8.08783758301289e-01 6.84745781585871e-04 5.98958794425431e-02
6 8.08783758301289e-01 -4.92888093626987e-02 1.03749753278125e-01
7 8.84502725564222e-01 -1.00298795314334e-04 5.98977925692943e-02
8 9.38296309482003e-01 -3.62629629597814e-11 5.98997924521108e-02
9 8.54838758301289e-01 7.33560902734414e-18 5.98997934135090e-02
10 8.84581509540708e-01 5.98959620331067e-02 1.91857125086673e-04
11 9.37777074626405e-01 5.98986826293509e-02 -3.60798246681495e-04
12 9.37972426929464e-01 -1.11209998253931e-01 3.02325037068512e-04
13 3.67625347872191e-01 -7.12165042367132e-10 -5.82098492008012e-02
14 3.82621795879202e-01 1.25350213061903e-11 -5.85361983487400e-02
15 8.54838758301289e-01 4.92888093626987e-02 -1.02608322085464e-01
16 8.54838758301289e-01 6.76878684969178e-04 -5.98959688645812e-02
17 8.84581509540754e-01 -5.98959620331083e-02 -1.91857125101860e-04
18 9.37777074626414e-01 -5.98986826293897e-02 3.60798246707225e-04
19 8.08783758301289e-01 -4.92888093626987e-02 1.02608322085464e-01
20 8.54838758301289e-01 -4.92888093626987e-02 1.02608322085464e-01
21 8.54838758301289e-01 4.92888093626987e-02 -1.03749753278125e-01
22 8.54838758301289e-01 -6.84745781585889e-04 -5.98958794425430e-02
23 8.08783758301289e-01 -6.84745781585889e-04 -5.98958794425430e-02
24 8.08783758301289e-01 4.92888093626987e-02 -1.03749753278125e-01
25 8.54838758301289e-01 6.84745781585871e-04 5.98958794425431e-02
26 9.37972426929463e-01 1.11209998253931e-01 -3.02325037068608e-04
27 9.37776979168518e-01 3.60523591540844e-04 5.98986240405893e-02
28 9.37972426945625e-01 3.02325029590667e-04 1.11209998254073e-01
29 8.08783758301289e-01 4.92888093626987e-02 -1.02608322085464e-01
30 8.08783758301289e-01 6.76878684969178e-04 -5.98959688645812e-02
31 8.54838758301289e-01 -4.92888093626987e-02 1.03749753278125e-01
32 9.67996258301289e-01 7.33560902734414e-18 5.98997934135090e-02
33 9.67996258301289e-01 0.00000000000000e+00 -5.98997934135088e-02
34 8.08783758301289e-01 7.33560902734414e-18 5.98997934135090e-02
35 3.82839389940355e-01 9.18485099360515e-19 -4.85386106123352e-02
36 3.67842941449629e-01 0.00000000000000e+00 -4.82122171917384e-02
37 9.37777792158353e-01 -3.60761670699777e-04 -6.00697202203931e-02
38 9.37778509698092e-01 -3.60723829380009e-04 -6.02407578110847e-02
39 9.37779227236860e-01 -3.60684724544455e-04 -6.04117954014961e-02
40 9.37779944770155e-01 -3.60644358271951e-04 -6.05828329916375e-02
41 9.37780662293472e-01 -3.60602732641331e-04 -6.07538705815189e-02
42 9.37781379802306e-01 -3.60559849731428e-04 -6.09249081711504e-02
43 9.37782097292154e-01 -3.60515711621078e-04 -6.10959457605423e-02
44 9.37782814758510e-01 -3.60470320389114e-04 -6.12669833497047e-02
45 9.37783532196871e-01 -3.60423678114373e-04 -6.14380209386480e-02
46 9.37784249602732e-01 -3.60375786875688e-04 -6.16090585273824e-02
47 9.37784966971588e-01 -3.60326648751894e-04 -6.17800961159184e-02
48 9.37785684298936e-01 -3.60276265821827e-04 -6.19511337042663e-02
49 9.37786401580272e-01 -3.60224640164322e-04 -6.21221712924366e-02
50 9.37787118811090e-01 -3.60171773858214e-04 -6.22932088804398e-02
51 9.37787835986887e-01 -3.60117668982339e-04 -6.24642464682864e-02
52 9.37788553103157e-01 -3.60062327615532e-04 -6.26352840559869e-02
53 9.37789270155398e-01 -3.60005751836629e-04 -6.28063216435521e-02
54 9.37789987139104e-01 -3.59947943724466e-04 -6.29773592309925e-02
55 9.37790704049772e-01 -3.59888905357878e-04 -6.31483968183188e-02
56 9.37791420882896e-01 -3.59828638815702e-04 -6.33194344055417e-02
57 9.37792137633973e-01 -3.59767146176774e-04 -6.34904719926721e-02
58 9.37792854298498e-01 -3.59704429519929e-04 -6.36615095797207e-02
59 9.37793570871967e-01 -3.59640490924005e-04 -6.38325471666985e-02
60 9.37794287349876e-01 -3.59575332467837e-04 -6.40035847536161e-02
61 9.37795003727720e-01 -3.59508956230262e-04 -6.41746223404847e-02
62 9.37795720000994e-01 -3.59441364290116e-04 -6.43456599273151e-02
63 9.37796436165196e-01 -3.59372558726236e-04 -6.45166975141183e-02
64 9.37797152215820e-01 -3.59302541617460e-04 -6.46877351009054e-02
65 9.37797868148361e-01 -3.59231315042622e-04 -6.48587726876874e-02
66 9.37798583958317e-01 -3.59158881080561e-04 -6.50298102744754e-02
67 9.37799299641181e-01 -3.59085241810114e-04 -6.52008478612806e-02
68 9.37800015192451e-01 -3.59010399310117e-04 -6.53718854481141e-02
69 9.37800730607621e-01 -3.58934355659407e-04 -6.55429230349871e-02
70 9.37801445882188e-01 -3.58857112936823e-04 -6.57139606219109e-02
71 9.37802161011647e-01 -3.58778673221199e-04 -6.58849982088966e-02
72 9.37802875991493e-01 -3.58699038591376e-04 -6.60560357959557e-02
73 9.37803590817223e-01 -3.58618211126188e-04 -6.62270733830994e-02
74 9.37804305484333e-01 -3.58536192904475e-04 -6.63981109703391e-02
75 9.37805019988316e-01 -3.58452986005073e-04 -6.65691485576862e-02
76 9.37805734324671e-01 -3.58368592506820e-04 -6.67401861451521e-02
77 9.37806448488891e-01 -3.58283014488553e-04 -6.69112237327482e-02
78 9.37807162476474e-01 -3.58196254029111e-04 -6.70822613204861e-02
79 9.37807876282914e-01 -3.58108313207330e-04 -6.72532989083773e-02
80 9.37808589903707e-01 -3.58019194102050e-04 -6.74243364964332e-02
81 9.37809303334349e-01 -3.57928898792106e-04 -6.75953740846655e-02
82 9.37810016570335e-01 -3.57837429356339e-04 -6.77664116730858e-02
83 9.37810729607162e-01 -3.57744787873584e-04 -6.79374492617056e-02
84 9.37811442440325e-01 -3.57650976422680e-04 -6.81084868505367e-02
85 9.37812155065320e-01 -3.57555997082466e-04 -6.82795244395906e-02
86 9.37812867477642e-01 -3.57459851931779e-04 -6.84505620288792e-02
87 9.37813579672787e-01 -3.57362543049457e-04 -6.86215996184141e-02
88 9.37814291646250e-01 -3.57264072514339e-04 -6.87926372082071e-02
89 9.37815003393528e-01 -3.57164442405262e-04 -6.89636747982699e-02
90 9.37815714910117e-01 -3.57063654801064e-04 -6.91347123886144e-02
91 9.37816426191511e-01 -3.56961711780585e-04 -6.93057499792524e-02
92 9.37817137233206e-01 -3.56858615422662e-04 -6.94767875701957e-02
93 9.37817848030699e-01 -3.56754367806134e-04 -6.96478251614562e-02
94 9.37818558579484e-01 -3.56648971009838e-04 -6.98188627530459e-02
95 9.37819268875059e-01 -3.56542427112613e-04 -6.99899003449766e-02
96 9.37819978912917e-01 -3.56434738193298e-04 -7.01609379372602e-02
97 9.37820688688555e-01 -3.56325906330730e-04 -7.03319755299088e-02
98 9.37821398197469e-01 -3.56215933603749e-04 -7.05030131229342e-02
99 9.37822107435155e-01 -3.56104822091193e-04 -7.06740507163486e-02
100 9.37822816397107e-01 -3.55992573871899e-04 -7.08450883101640e-02
101 9.37823525078822e-01 -3.55879191024708e-04 -7.10161259043923e-02
102 9.37824233475796e-01 -3.55764675628456e-04 -7.11871634990456e-02
103 9.37824941583524e-01 -3.55649029761983e-04 -7.13582010941361e-02
104 9.37825649397502e-01 -3.55532255504128e-04 -7.15292386896758e-02
105 9.37826356913225e-01 -3.55414354933728e-04 -7.17002762856768e-02
106 9.37827064126189e-01 -3.55295330129622e-04 -7.18713138821513e-02
107 9.37827771031891e-01 -3.55175183170649e-04 -7.20423514791114e-02
108 9.37828477625825e-01 -3.55053916135648e-04 -7.22133890765693e-02
109 9.37829183903487e-01 -3.54931531103456e-04 -7.23844266745372e-02
110 9.37829889860374e-01 -3.54808030152913e-04 -7.25554642730272e-02
111 9.37830595491980e-01 -3.54683415362858e-04 -7.27265018720517e-02
112 9.37831300793802e-01 -3.54557688812128e-04 -7.28975394716227e-02
113 9.37832005761334e-01 -3.54430852579563e-04 -7.30685770717526e-02
114 9.37832710390074e-01 -3.54302908744001e-04 -7.32396146724536e-02
115 9.37833414675516e-01 -3.54173859384280e-04 -7.34106522737381e-02
116 9.37834118613157e-01 -3.54043706579240e-04 -7.35816898756182e-02
117 9.37834822198491e-01 -3.53912452407719e-04 -7.37527274781063e-02
118 9.37835525427015e-01 -3.53780098948555e-04 -7.39237650812146e-02
119 9.37836228294225e-01 -3.53646648280588e-04 -7.40948026849556e-02
120 9.37836930795615e-01 -3.53512102482655e-04 -7.42658402893416e-02
121 9.37837632926683e-01 -3.53376463633596e-04 -7.44368778943848e-02
122 9.37838334682923e-01 -3.53239733812250e-04 -7.46079155000977e-02
123 9.37839036059831e-01 -3.53101915097454e-04 -7.47789531064925e-02
124 9.37839737052903e-01 -3.52963009568047e-04 -7.49499907135818e-02
125 9.37840437657634e-01 -3.52823019302868e-04 -7.51210283213778e-02
126 9.37841137869521e-01 -3.52681946380756e-04 -7.52920659298930e-02
127 9.37841837684059e-01 -3.52539792880549e-04 -7.54631035391398e-02
128 9.37842537096744e-01 -3.52396560881086e-04 -7.56341411491305e-02
129 9.37843236103071e-01 -3.52252252461206e-04 -7.58051787598777e-02
130 9.37843934698537e-01 -3.52106869699746e-04 -7.59762163713936e-02
131 9.37844632878636e-01 -3.51960414675546e-04 -7.61472539836908e-02
132 9.37845330638865e-01 -3.51812889467444e-04 -7.63182915967817e-02
133 9.37846027974719e-01 -3.51664296154279e-04 -7.64893292106787e-02
134 9.37846724881694e-01 -3.51514636814889e-04 -7.66603668253943e-02
135 9.37847421355286e-01 -3.51363913528112e-04 -7.68314044409410e-02
136 9.37848117390991e-01 -3.51212128372788e-04 -7.70024420573311e-02
137 9.37848812984303e-01 -3.51059283427754e-04 -7.71734796745772e-02
138 9.37849508130720e-01 -3.50905380771850e-04 -7.73445172926917e-02
139 9.37850202825736e-01 -3.50750422483913e-04 -7.75155549116871e-02
140 9.37850897064847e-01 -3.50594410642782e-04 -7.76865925315759e-02
141 9.37851590843550e-01 -3.50437347327296e-04 -7.78576301523705e-02
142 9.37852284157339e-01 -3.50279234616293e-04 -7.80286677740834e-02
143 9.37852977001711e-01 -3.50120074588611e-04 -7.81997053967272e-02
144 9.37853669372161e-01 -3.49959869323089e-04 -7.83707430203142e-02
145 9.37854361264185e-01 -3.49798620898564e-04 -7.85417806448569e-02
146 9.37855052673278e-01 -3.49636331393877e-04 -7.87128182703679e-02
147 9.37855743594937e-01 -3.49473002887864e-04 -7.88838558968596e-02
148 9.37856434024656e-01 -3.49308637459364e-04 -7.90548935243445e-02
149 9.37857123957933e-01 -3.49143237187215e-04 -7.92259311528351e-02
150 9.37857813390262e-01 -3.48976804150256e-04 -7.93969687823438e-02
151 9.37858502317139e-01 -3.48809340427325e-04 -7.95680064128831e-02
152 9.37859190734061e-01 -3.48640848097260e-04 -7.97390440444656e-02
153 9.37859878636522e-01 -3.48471329238899e-04 -7.99100816771036e-02
154 9.37860566020018e-01 -3.48300785931081e-04 -8.00811193108096e-02
155 9.37861252880046e-01 -3.48129220252643e-04 -8.02521569455962e-02
156 9.37861939212100e-01 -3.47956634282424e-04 -8.04231945814757e-02
157 9.37862625011677e-01 -3.47783030099261e-04 -8.05942322184606e-02
158 9.37863310274272e-01 -3.47608409781994e-04 -8.07652698565633e-02
159 9.37863994995381e-01 -3.47432775409460e-04 -8.09363074957964e-02
160 9.37864679170500e-01 -3.47256129060496e-04 -8.11073451361723e-02
161 9.37865362795124e-01 -3.47078472813942e-04 -8.12783827777032e-02
162 9.37866045864750e-01 -3.46899808748635e-04 -8.14494204204018e-02
163 9.37866728374873e-01 -3.46720138943413e-04 -8.16204580642805e-02
164 9.37867410320988e-01 -3.46539465477113e-04 -8.17914957093515e-02
165 9.37868091698591e-01 -3.46357790428575e-04 -8.19625333556274e-02
166 9.37868772503179e-01 -3.46175115876635e-04 -8.21335710031205e-02
167 9.37869452730246e-01 -3.45991443900132e-04 -8.23046086518432e-02
168 9.37870132375290e-01 -3.45806776577903e-04 -8.24756463018079e-02
169 9.37870811433804e-01 -3.45621115988787e-04 -8.26466839530270e-02
170 9.37871489901285e-01 -3.45434464211621e-04 -8.28177216055127e-02
171 9.37872167773230e-01 -3.45246823325242e-04 -8.29887592592776e-02
172 9.37872845045132e-01 -3.45058195408489e-04 -8.31597969143338e-02
173 9.37873521712489e-01 -3.44868582540200e-04 -8.33308345706937e-02
174 9.37874197770796e-01 -3.44677986799211e-04 -8.35018722283697e-02
175 9.37874873215549e-01 -3.44486410264361e-04 -8.36729098873740e-02
176 9.37875548042243e-01 -3.44293855014488e-04 -8.38439475477189e-02
177 9.37876222246374e-01 -3.44100323128428e-04 -8.40149852094167e-02
178 9.37876895823438e-01 -3.43905816685020e-04 -8.41860228724796e-02
179 9.37877568768931e-01 -3.43710337763101e-04 -8.43570605369200e-02
180 9.37878241078348e-01 -3.43513888441508e-04 -8.45280982027499e-02
181 9.37878912747185e-01 -3.43316470799079e-04 -8.46991358699817e-02
182 9.37879583770938e-01 -3.43118086914652e-04 -8.48701735386276e-02
183 9.37880254145103e-01 -3.42918738867064e-04 -8.50412112086997e-02
184 9.37880923865175e-01 -3.42718428735153e-04 -8.52122488802102e-02
185 9.37881592926650e-01 -3.42517158597755e-04 -8.53832865531712e-02
186 9.37882261325024e-01 -3.42314930533708e-04 -8.55543242275949e-02
187 9.37882929055792e-01 -3.42111746621850e-04 -8.57253619034934e-02
188 9.37883596114451e-01 -3.41907608941018e-04 -8.58963995808789e-02
189 9.37884262496495e-01 -3.41702519570049e-04 -8.60674372597633e-02
190 9.37884928197422e-01 -3.41496480587780e-04 -8.62384749401588e-02
191 9.37885593212726e-01 -3.41289494073050e-04 -8.64095126220774e-02
192 9.37886257537903e-01 -3.41081562104694e-04 -8.65805503055311e-02
193 9.37886921168449e-01 -3.40872686761550e-04 -8.67515879905319e-02
194 9.37887584099860e-01 -3.40662870122455e-04 -8.69226256770918e-02
195 9.37888246327631e-01 -3.40452114266247e-04 -8.70936633652228e-02
196 9.37888907847259e-01 -3.40240421271763e-04 -8.72647010549368e-02
197 9.37889568654238e-01 -3.40027793217839e-04 -8.74357387462458e-02
198 9.37890228744066e-01 -3.39814232183313e-04 -8.76067764391615e-02
199 9.37890888112236e-01 -3.39599740247022e-04 -8.77778141336960e-02
200 9.37891546754246e-01 -3.39384319487803e-04 -8.79488518298611e-02
201 9.37892204665591e-01 -3.39167971984492e-04 -8.81198895276685e-02
202 9.37892861841767e-01 -3.38950699815927e-04 -8.82909272271301e-02
203 9.37893518278269e-01 -3.38732505060945e-04 -8.84619649282577e-02
204 9.37894173970593e-01 -3.38513389798383e-04 -8.86330026310631e-02
205 9.37894828914235e-01 -3.38293356107078e-04 -8.88040403355579e-02
206 9.37895483104691e-01 -3.38072406065866e-04 -8.89750780417538e-02
207 9.37896136537456e-01 -3.37850541753584e-04 -8.91461157496626e-02
208 9.37896789208027e-01 -3.37627765249069e-04 -8.93171534592959e-02
209 9.37897441111898e-01 -3.37404078631159e-04 -8.94881911706653e-02
210 9.37898092244566e-01 -3.37179483978690e-04 -8.96592288837824e-02
211 9.37898742601527e-01 -3.36953983370498e-04 -8.98302665986589e-02
212 9.37899392178276e-01 -3.36727578885420e-04 -9.00013043153061e-02
213 9.37900040970309e-01 -3.36500272602294e-04 -9.01723420337357e-02
214 9.37900688973121e-01 -3.36272066599956e-04 -9.03433797539591e-02
215 9.37901336182209e-01 -3.36042962957242e-04 -9.05144174759878e-02
216 9.37901982593068e-01 -3.35812963752990e-04 -9.06854551998332e-02
217 9.37902628201194e-01 -3.35582071066035e-04 -9.08564929255067e-02
218 9.37903273002083e-01 -3.35350286975215e-04 -9.10275306530196e-02
219 9.37903916991230e-01 -3.35117613559367e-04 -9.11985683823834e-02
220 9.37904560164132e-01 -3.34884052897326e-04 -9.13696061136092e-02
221 9.37905202516283e-01 -3.34649607067930e-04 -9.15406438467084e-02
222 9.37905844043181e-01 -3.34414278150015e-04 -9.17116815816922e-02
223 9.37906484740319e-01 -3.34178068222417e-04 -9.18827193185717e-02
224 9.37907124603195e-01 -3.33940979363974e-04 -9.20537570573583e-02
225 9.37907763627305e-01 -3.33703013653522e-04 -9.22247947980629e-02
226 9.37908401808143e-01 -3.33464173169896e-04 -9.23958325406968e-02
227 9.37909039141205e-01 -3.33224459991935e-04 -9.25668702852709e-02
228 9.37909675621988e-01 -3.32983876198474e-04 -9.27379080317963e-02
229 9.37910311245987e-01 -3.32742423868349e-04 -9.29089457802840e-02
230 9.37910946008697e-01 -3.32500105080398e-04 -9.30799835307450e-02
231 9.37911579905616e-01 -3.32256921913456e-04 -9.32510212831901e-02
232 9.37912212932237e-01 -3.32012876446361e-04 -9.34220590376303e-02
233 9.37912845084058e-01 -3.31767970757948e-04 -9.35930967940764e-02
234 9.37913476356574e-01 -3.31522206927054e-04 -9.37641345525392e-02
235 9.37914106745280e-01 -3.31275587032515e-04 -9.39351723130295e-02
236 9.37914736245673e-01 -3.31028113153168e-04 -9.41062100755581e-02
237 9.37915364853248e-01 -3.30779787367850e-04 -9.42772478401356e-02
238 9.37915992563501e-01 -3.30530611755396e-04 -9.44482856067726e-02
239 9.37916619371928e-01 -3.30280588394643e-04 -9.46193233754798e-02
240 9.37917245274024e-01 -3.30029719364427e-04 -9.47903611462679e-02
241 9.37917870265285e-01 -3.29778006743585e-04 -9.49613989191472e-02
242 9.37918494341208e-01 -3.29525452610953e-04 -9.51324366941283e-02
243 9.37919117497287e-01 -3.29272059045367e-04 -9.53034744712216e-02
244 9.37919739729019e-01 -3.29017828125665e-04 -9.54745122504377e-02
245 9.37920361031899e-01 -3.28762761930681e-04 -9.56455500317867e-02
246 9.37920981401423e-01 -3.28506862539253e-04 -9.58165878152791e-02
247 9.37921600833088e-01 -3.28250132030216e-04 -9.59876256009251e-02
248 9.37922219322388e-01 -3.27992572482408e-04 -9.61586633887350e-02
249 9.37922836864819e-01 -3.27734185974664e-04 -9.63297011787189e-02
250 9.37923453455877e-01 -3.27474974585820e-04 -9.65007389708871e-02
251 9.37924069091059e-01 -3.27214940394714e-04 -9.66717767652495e-02
252 9.37924683765859e-01 -3.26954085480181e-04 -9.68428145618163e-02
253 9.37925297475774e-01 -3.26692411921058e-04 -9.70138523605975e-02
254 9.37925910216299e-01 -3.26429921796181e-04 -9.71848901616031e-02
255 9.37926521982930e-01 -3.26166617184386e-04 -9.73559279648429e-02
256 9.37927132771163e-01 -3.25902500164510e-04 -9.75269657703269e-02
257 9.37927742576494e-01 -3.25637572815389e-04 -9.76980035780648e-02
258 9.37928351394418e-01 -3.25371837215859e-04 -9.78690413880664e-02
259 9.37928959220431e-01 -3.25105295444757e-04 -9.80400792003415e-02
260 9.37929566050030e-01 -3.24837949580919e-04 -9.82111170148997e-02
261 9.37930171878709e-01 -3.24569801703181e-04 -9.83821548317507e-02
262 9.37930776701964e-01 -3.24300853890380e-04 -9.85531926509040e-02
263 9.37931380515292e-01 -3.24031108221352e-04 -9.87242304723692e-02
264 9.37931983314188e-01 -3.23760566774934e-04 -9.88952682961558e-02
265 9.37932585094148e-01 -3.23489231629961e-04 -9.90663061222731e-02
266 9.37933185850668e-01 -3.23217104865270e-04 -9.92373439507306e-02
267 9.37933785579243e-01 -3.22944188559698e-04 -9.94083817815376e-02
268 9.37934384275369e-01 -3.22670484792081e-04 -9.95794196147033e-02
269 9.37934981934543e-01 -3.22395995641255e-04 -9.97504574502369e-02
270 9.37935578552259e-01 -3.22120723186057e-04 -9.99214952881477e-02
271 9.37936174124014e-01 -3.21844669505323e-04 -1.00092533128445e-01
272 9.37936768645303e-01 -3.21567836677890e-04 -1.00263570971137e-01
273 9.37937362111622e-01 -3.21290226782593e-04 -1.00434608816234e-01
274 9.37937954518467e-01 -3.21011841898271e-04 -1.00605646663744e-01
275 9.37938545861334e-01 -3.20732684103758e-04 -1.00776684513676e-01
276 9.37939136135719e-01 -3.20452755477892e-04 -1.00947722366039e-01
277 9.37939725337117e-01 -3.20172058099508e-04 -1.01118760220841e-01
278 9.37940313461024e-01 -3.19890594047445e-04 -1.01289798078092e-01
279 9.37940900502936e-01 -3.19608365400537e-04 -1.01460835937801e-01
280 9.37941486458349e-01 -3.19325374237622e-04 -1.01631873799975e-01
281 9.37942071322758e-01 -3.19041622637536e-04 -1.01802911664623e-01
282 9.37942655091659e-01 -3.18757112679115e-04 -1.01973949531754e-01
283 9.37943237760549e-01 -3.18471846441198e-04 -1.02144987401377e-01
284 9.37943819324922e-01 -3.18185826002619e-04 -1.02316025273499e-01
285 9.37944399780276e-01 -3.17899053442216e-04 -1.02487063148128e-01
286 9.37944979122104e-01 -3.17611530838825e-04 -1.02658101025274e-01
287 9.37945557345904e-01 -3.17323260271283e-04 -1.02829138904945e-01
288 9.37946134447171e-01 -3.17034243818427e-04 -1.03000176787148e-01
289 9.37946710421401e-01 -3.16744483559093e-04 -1.03171214671891e-01
290 9.37947285264090e-01 -3.16453981572118e-04 -1.03342252559183e-01
291 9.37947858970733e-01 -3.16162739936340e-04 -1.03513290449031e-01
292 9.37948431536826e-01 -3.15870760730594e-04 -1.03684328341444e-01
293 9.37949002957866e-01 -3.15578046033718e-04 -1.03855366236429e-01
294 9.37949573229347e-01 -3.15284597924549e-04 -1.04026404133994e-01
295 9.37950142346766e-01 -3.14990418481923e-04 -1.04197442034147e-01
296 9.37950710305618e-01 -3.14695509784677e-04 -1.04368479936895e-01
297 9.37951277101400e-01 -3.14399873911648e-04 -1.04539517842246e-01
298 9.37951842729607e-01 -3.14103512941674e-04 -1.04710555750207e-01
299 9.37952407185735e-01 -3.13806428953591e-04 -1.04881593660786e-01
300 9.37952970465279e-01 -3.13508624026237e-04 -1.05052631573990e-01
301 9.37953532563736e-01 -3.13210100238447e-04 -1.05223669489826e-01
302 9.37954093476602e-01 -3.12910859669061e-04 -1.05394707408302e-01
303 9.37954653199371e-01 -3.12610904396913e-04 -1.05565745329425e-01
304 9.37955211727541e-01 -3.12310236500843e-04 -1.05736783253202e-01
305 9.37955769056606e-01 -3.12008858059686e-04 -1.05907821179640e-01
306 9.37956325182063e-01 -3.11706771152281e-04 -1.06078859108746e-01
307 9.37956880099407e-01 -3.11403977857464e-04 -1.06249897040526e-01
308 9.37957433804135e-01 -3.11100480254073e-04 -1.06420934974988e-01
309 9.37957986291741e-01 -3.10796280420945e-04 -1.06591972912139e-01
310 9.37958537557722e-01 -3.10491380436918e-04 -1.06763010851984e-01
311 9.37959087597574e-01 -3.10185782380828e-04 -1.06934048794532e-01
312 9.37959636406792e-01 -3.09879488331514e-04 -1.07105086739787e-01
313 9.37960183980873e-01 -3.09572500367813e-04 -1.07276124687757e-01
314 9.37960730315312e-01 -3.09264820568562e-04 -1.07447162638448e-01
315 9.37961275405604e-01 -3.08956451012599e-04 -1.07618200591867e-01
316 9.37961819247247e-01 -3.08647393778761e-04 -1.07789238548019e-01
317 9.37962361835735e-01 -3.08337650945887e-04 -1.07960276506911e-01
318 9.37962903166564e-01 -3.08027224592814e-04 -1.08131314468548e-01
319 9.37963443235230e-01 -3.07716116798379e-04 -1.08302352432938e-01
320 9.37963982037230e-01 -3.07404329641421e-04 -1.08473390400086e-01
321 9.37964519568058e-01 -3.07091865200777e-04 -1.08644428369997e-01
322 9.37965055823211e-01 -3.06778725555285e-04 -1.08815466342678e-01
323 9.37965590798185e-01 -3.06464912783784e-04 -1.08986504318134e-01
324 9.37966124488475e-01 -3.06150428965110e-04 -1.09157542296371e-01
325 9.37966656889577e-01 -3.05835276178103e-04 -1.09328580277394e-01
326 9.37967187996987e-01 -3.05519456501599e-04 -1.09499618261210e-01
327 9.37967717806200e-01 -3.05202972014438e-04 -1.09670656247822e-01
328 9.37968246312714e-01 -3.04885824795457e-04 -1.09841694237238e-01
329 9.37968773512022e-01 -3.04568016923495e-04 -1.10012732229461e-01
330 9.37969299399623e-01 -3.04249550477389e-04 -1.10183770224498e-01
331 9.37969823971010e-01 -3.03930427535979e-04 -1.10354808222353e-01
332 9.37970347221680e-01 -3.03610650178102e-04 -1.10525846223031e-01
333 9.37970869147129e-01 -3.03290220482597e-04 -1.10696884226537e-01
334 9.37971389742853e-01 -3.02969140528303e-04 -1.10867922232877e-01
335 9.37971909004347e-01 -3.02647412394057e-04 -1.11038960242054e-01
336 8.54685241634622e-01 -6.76878684969179e-04 5.98959688645812e-02
337 8.54531724967956e-01 -6.76878684969179e-04 5.98959688645812e-02
338 8.54378208301289e-01 -6.76878684969179e-04 5.98959688645812e-02
339 8.54224691634622e-01 -6.76878684969179e-04 5.98959688645812e-02
340 8.54071174967956e-01 -6.76878684969179e-04 5.98959688645812e-02
341 8.53917658301289e-01 -6.76878684969179e-04 5.98959688645812e-02
342 8.53764141634622e-01 -6.76878684969179e-04 5.98959688645812e-02
343 8.53610624967956e-01 -6.76878684969179e-04 5.98959688645812e-02
344 8.53457108301289e-01 -6.76878684969179e-04 5.98959688645812e-02
345 8.53303591634622e-01 -6.76878684969179e-04 5.98959688645812e-02
346 8.53150074967956e-01 -6.76878684969179e-04 5.98959688645812e-02
347 8.52996558301289e-01 -6.76878684969179e-04 5.98959688645812e-02
348 8.52843041634622e-01 -6.76878684969179e-04 5.98959688645812e-02
349 8.52689524967956e-01 -6.76878684969179e-04 5.98959688645812e-02
350 8.52536008301289e-01 -6.76878684969179e-04 5.98959688645812e-02
351 8.52382491634622e-01 -6.76878684969179e-04 5.98959688645812e-02
352 8.52228974967956e-01 -6.76878684969179e-04 5.98959688645812e-02
353 8.52075458301289e-01 -6.76878684969179e-04 5.98959688645812e-02
354 8.51921941634622e-01 -6.76878684969179e-04 5.98959688645812e-02
355 8.51768424967956e-01 -6.76878684969179e-04 5.98959688645812e-02
356 8.51614908301289e-01 -6.76878684969179e-04 5.98959688645812e-02
357 8.51461391634622e-01 -6.76878684969179e-04 5.98959688645812e-02
358 8.51307874967955e-01 -6.76878684969179e-04 5.98959688645812e-02
359 8.51154358301289e-01 -6.76878684969179e-04 5.98959688645812e-02
360 8.51000841634622e-01 -6.76878684969179e-04 5.98959688645812e-02
361 8.50847324967955e-01 -6.76878684969179e-04 5.98959688645812e-02
362 8.50693808301289e-01 -6.76878684969179e-04 5.98959688645812e-02
363 8.50540291634622e-01 -6.76878684969179e-04 5.98959688645812e-02
364 8.50386774967955e-01 -6.76878684969179e-04 5.98959688645812e-02
365 8.50233258301289e-01 -6.76878684969179e-04 5.98959688645812e-02
366 8.50079741634622e-01 -6.76878684969179e-04 5.98959688645812e-02
367 8.49926224967955e-01 -6.76878684969179e-04 5.98959688645812e-02
368 8.49772708301289e-01 -6.76878684969179e-04 5.98959688645812e-02
369 8.49619191634622e-01 -6.76878684969179e-04 5.98959688645812e-02
370 8.49465674967955e-01 -6.76878684969179e-04 5.98959688645812e-02
371 8.49312158301289e-01 -6.76878684969179e-04 5.98959688645812e-02
372 8.49158641634622e-01 -6.76878684969179e-04 5.98959688645812e-02
373 8.49005124967955e-01 -6.76878684969179e-04 5.98959688645812e-02
374 8.48851608301289e-01 -6.76878684969179e-04 5.98959688645812e-02
375 8.48698091634622e-01 -6.76878684969179e-04 5.98959688645812e-02
376 8.48544574967955e-01 -6.76878684969179e-04 5.98959688645812e-02
377 8.48391058301289e-01 -6.76878684969179e-04 5.98959688645812e-02
378 8.48237541634622e-01 -6.76878684969179e-04 5.98959688645812e-02
379 8.48084024967955e-01 -6.76878684969179e-04 5.98959688645812e-02
380 8.47930508301289e-01 -6.76878684969179e-04 5.98959688645812e-02
381 8.47776991634622e-01 -6.76878684969179e-04 5.98959688645812e-02
382 8.47623474967955e-01 -6.76878684969179e-04 5.98959688645812e-02
383 8.47469958301289e-01 -6.76878684969179e-04 5.98959688645812e-02
384 8.47316441634622e-01 -6.76878684969179e-04 5.98959688645812e-02
385 8.47162924967955e-01 -6.76878684969179e-04 5.98959688645812e-02
386 8.47009408301289e-01 -6.76878684969179e-04 5.98959688645812e-02
387 8.46855891634622e-01 -6.76878684969179e-04 5.98959688645812e-02
388 8.46702374967955e-01 -6.76878684969179e-04 5.98959688645812e-02
389 8.46548858301289e-01 -6.76878684969179e-04 5.98959688645812e-02
390 8.46395341634622e-01 -6.76878684969179e-04 5.98959688645812e-02
391 8.46241824967955e-01 -6.76878684969179e-04 5.98959688645812e-02
392 8.46088308301289e-01 -6.76878684969179e-04 5.98959688645812e-02
393 8.45934791634622e-01 -6.76878684969179e-04 5.98959688645812e-02
394 8.45781274967955e-01 -6.76878684969179e-04 5.98959688645812e-02
395 8.45627758301289e-01 -6.76878684969179e-04 5.98959688645812e-02
396 8.45474241634622e-01 -6.76878684969179e-04 5.98959688645812e-02
397 8.45320724967955e-01 -6.76878684969179e-04 5.98959688645812e-02
398 8.45167208301289e-01 -6.76878684969179e-04 5.98959688645812e-02
399 8.45013691634622e-01 -6.76878684969179e-04 5.98959688645812e-02
400 8.44860174967955e-01 -6.76878684969179e-04 5.98959688645812e-02
401 8.44706658301289e-01 -6.76878684969179e-04 5.98959688645812e-02
402 8.44553141634622e-01 -6.76878684969179e-04 5.98959688645812e-02
403 8.44399624967955e-01 -6.76878684969179e-04 5.98959688645812e-02
404 8.44246108301289e-01 -6.76878684969179e-04 5.98959688645812e-02
405 8.44092591634622e-01 -6.76878684969179e-04 5.98959688645812e-02
406 8.43939074967955e-01 -6.76878684969179e-04 5.98959688645812e-02
407 8.43785558301289e-01 -6.76878684969179e-04 5.98959688645812e-02
408 8.43632041634622e-01 -6.76878684969179e-04 5.98959688645812e-02
409 8.43478524967955e-01 -6.76878684969179e-04 5.98959688645812e-02
410 8.43325008301289e-01 -6.76878684969179e-04 5.98959688645812e-02
411 8.43171491634622e-01 -6.76878684969179e-04 5.98959688645812e-02
412 8.43017974967955e-01 -6.76878684969179e-04 5.98959688645812e-02
413 8.42864458301289e-01 -6.76878684969179e-04 5.98959688645812e-02
414 8.42710941634622e-01 -6.76878684969179e-04 5.98959688645812e-02
415 8.42557424967955e-01 -6.76878684969179e-04 5.98959688645812e-02
416 8.42403908301289e-01 -6.76878684969179e-04 5.98959688645812e-02
417 8.42250391634622e-01 -6.76878684969179e-04 5.98959688645812e-02
418 8.42096874967955e-01 -6.76878684969179e-04 5.98959688645812e-02
419 8.41943358301289e-01 -6.76878684969179e-04 5.98959688645812e-02
420 8.41789841634622e-01 -6.76878684969179e-04 5.98959688645812e-02
421 8.41636324967955e-01 -6.76878684969179e-04 5.98959688645812e-02
422 8.41482808301289e-01 -6.76878684969179e-04 5.98959688645812e-02
423 8.41329291634622e-01 -6.76878684969179e-04 5.98959688645812e-02
424 8.41175774967955e-01 -6.76878684969179e-04 5.98959688645812e-02
425 8.41022258301289e-01 -6.76878684969179e-04 5.98959688645812e-02
426 8.40868741634622e-01 -6.76878684969179e-04 5.98959688645812e-02
427 8.40715224967955e-01 -6.76878684969179e-04 5.98959688645812e-02
428 8.40561708301289e-01 -6.76878684969179e-04 5.98959688645812e-02
429 8.40408191634622e-01 -6.76878684969179e-04 5.98959688645812e-02
430 8.40254674967955e-01 -6.76878684969179e-04 5.98959688645812e-02
431 8.40101158301289e-01 -6.76878684969179e-04 5.98959688645812e-02
432 8.39947641634622e-01 -6.76878684969179e-04 5.98959688645812e-02
433 8.39794124967955e-01 -6.76878684969179e-04 5.98959688645812e-02
434 8.39640608301289e-01 -6.76878684969179e-04 5.98959688645812e-02
435 8.39487091634622e-01 -6.76878684969179e-04 5.98959688645812e-02
436 8.39333574967955e-01 -6.76878684969179e-04 5.98959688645812e-02
437 8.39180058301289e-01 -6.76878684969179e-04 5.98959688645812e-02
438 8.39026541634622e-01 -6.76878684969179e-04 5.98959688645812e-02
439 8.38873024967955e-01 -6.76878684969179e-04 5.98959688645812e-02
440 8.38719508301289e-01 -6.76878684969179e-04 5.98959688645812e-02
441 8.38565991634622e-01 -6.76878684969179e-04 5.98959688645812e-02
442 8.38412474967955e-01 -6.76878684969179e-04 5.98959688645812e-02
443 8.38258958301289e-01 -6.76878684969179e-04 5.98959688645812e-02
444 8.38105441634622e-01 -6.76878684969179e-04 5.98959688645812e-02
445 8.37951924967955e-01 -6.76878684969179e-04 5.98959688645812e-02
446 8.37798408301289e-01 -6.76878684969179e-04 5.98959688645812e-02
447 8.37644891634622e-01 -6.76878684969179e-04 5.98959688645812e-02
448 8.37491374967955e-01 -6.76878684969179e-04 5.98959688645812e-02
449 8.37337858301289e-01 -6.76878684969179e-04 5.98959688645812e-02
450 8.37184341634622e-01 -6.76878684969179e-04 5.98959688645812e-02
451 8.37030824967955e-01 -6.76878684969179e-04 5.98959688645812e-02
452 8.36877308301289e-01 -6.76878684969179e-04 5.98959688645812e-02
453 8.36723791634622e-01 -6.76878684969179e-04 5.98959688645812e-02
454 8.36570274967956e-01 -6.76878684969179e-04 5.98959688645812e-02
455 8.36416758301289e-01 -6.76878684969179e-04 5.98959688645812e-02
456 8.36263241634622e-01 -6.76878684969179e-04 5.98959688645812e-02
457 8.36109724967956e-01 -6.76878684969179e-04 5.98959688645812e-02
458 8.35956208301289e-01 -6.76878684969179e-04 5.98959688645812e-02
459 8.35802691634622e-01 -6.76878684969179e-04 5.98959688645812e-02
460 8.35649174967956e-01 -6.76878684969179e-04 5.98959688645812e-02
461 8.35495658301289e-01 -6.76878684969179e-04 5.98959688645812e-02
462 8.35342141634622e-01 -6.76878684969179e-04 5.98959688645812e-02
463 8.35188624967956e-01 -6.76878684969179e-04 5.98959688645812e-02
464 8.35035108301289e-01 -6.76878684969179e-04 5.98959688645812e-02
465 8.34881591634622e-01 -6.76878684969179e-04 5.98959688645812e-02
466 8.34728074967956e-01 -6.76878684969179e-04 5.98959688645812e-02
467 8.34574558301289e-01 -6.76878684969179e-04 5.98959688645812e-02
468 8.34421041634622e-01 -6.76878684969179e-04 5.98959688645812e-02
469 8.34267524967956e-01 -6.76878684969179e-04 5.98959688645812e-02
470 8.34114008301289e-01 -6.76878684969179e-04 5.98959688645812e-02
471 8.33960491634622e-01 -6.76878684969179e-04 5.98959688645812e-02
472 8.33806974967956e-01 -6.76878684969179e-04 5.98959688645812e-02
473 8.33653458301289e-01 -6.76878684969179e-04 5.98959688645812e-02
474 8.33499941634622e-01 -6.76878684969179e-04 5.98959688645812e-02
475 8.33346424967956e-01 -6.76878684969179e-04 5.98959688645812e-02
476 8.33192908301289e-01 -6.76878684969179e-04 5.98959688645812e-02
477 8.33039391634622e-01 -6.76878684969179e-04 5.98959688645812e-02
478 8.32885874967956e-01 -6.76878684969179e-04 5.98959688645812e-02
479 8.32732358301289e-01 -6.76878684969179e-04 5.98959688645812e-02
480 8.32578841634622e-01 -6.76878684969179e-04 5.98959688645812e-02
481 8.32425324967956e-01 -6.76878684969179e-04 5.98959688645812e-02
482 8.32271808301289e-01 -6.76878684969179e-04 5.98959688645812e-02
483 8.32118291634622e-01 -6.76878684969179e-04 5.98959688645812e-02
484 8.31964774967956e-01 -6.76878684969179e-04 5.98959688645812e-02
485 8.31811258301289e-01 -6.76878684969179e-04 5.98959688645812e-02
486 8.31657741634622e-01 -6.76878684969179e-04 5.98959688645812e-02
487 8.31504224967956e-01 -6.76878684969179e-04 5.98959688645812e-02
488 8.31350708301289e-01 -6.76878684969179e-04 5.98959688645812e-02
489 8.31197191634622e-01 -6.76878684969179e-04 5.98959688645812e-02
490 8.31043674967956e-01 -6.76878684969179e-04 5.98959688645812e-02
491 8.30890158301289e-01 -6.76878684969179e-04 5.98959688645812e-02
492 8.30736641634622e-01 -6.76878684969179e-04 5.98959688645812e-02
493 8.30583124967956e-01 -6.76878684969179e-04 5.98959688645812e-02
494 8.30429608301289e-01 -6.76878684969179e-04 5.98959688645812e-02
495 8.30276091634622e-01 -6.76878684969179e-04 5.98959688645812e-02
496 8.30122574967956e-01 -6.76878684969179e-04 5.98959688645812e-02
497 8.29969058301289e-01 -6.76878684969179e-04 5.98959688645812e-02
498 8.29815541634622e-01 -6.76878684969179e-04 5.98959688645812e-02
499 8.29662024967956e-01 -6.76878684969179e-04 5.98959688645812e-02
500 8.29508508301289e-01 -6.76878684969179e-04 5.98959688645812e-02
501 8.29354991634623e-01 -6.76878684969179e-04 5.98959688645812e-02
502 8.29201474967956e-01 -6.76878684969179e-04 5.98959688645812e-02
503 8.29047958301289e-01 -6.76878684969179e-04 5.98959688645812e-02
504 8.28894441634623e-01 -6.76878684969179e-04 5.98959688645812e-02
505 8.28740924967956e-01 -6.76878684969179e-04 5.98959688645812e-02
506 8.28587408301289e-01 -6.76878684969179e-04 5.98959688645812e-02
507 8.28433891634623e-01 -6.76878684969179e-04 5.98959688645812e-02
508 8.28280374967956e-01 -6.76878684969179e-04 5.98959688645812e-02
509 8.28126858301289e-01 -6.76878684969179e-04 5.98959688645812e-02
510 8.27973341634623e-01 -6.76878684969179e-04 5.98959688645812e-02
511 8.27819824967956e-01 -6.76878684969179e-04 5.98959688645812e-02
512 8.27666308301289e-01 -6.76878684969179e-04 5.98959688645812e-02
513 8.27512791634623e-01 -6.76878684969179e-04 5.98959688645812e-02
514 8.27359274967956e-01 -6.76878684969179e-04 5.98959688645812e-02
515 8.27205758301289e-01 -6.76878684969179e-04 5.98959688645812e-02
516 8.27052241634623e-01 -6.76878684969179e-04 5.98959688645812e-02
517 8.26898724967956e-01 -6.76878684969179e-04 5.98959688645812e-02
518 8.26745208301289e-01 -6.76878684969179e-04 5.98959688645812e-02
519 8.26591691634623e-01 -6.76878684969179e-04 5.98959688645812e-02
520 8.26438174967956e-01 -6.76878684969179e-04 5.98959688645812e-02
521 8.26284658301289e-01 -6.76878684969179e-04 5.98959688645812e-02
522 8.26131141634623e-01 -6.76878684969179e-04 5.98959688645812e-02
523 8.25977624967956e-01 -6.76878684969179e-04 5.98959688645812e-02
524 8.25824108301289e-01 -6.76878684969179e-04 5.98959688645812e-02
525 8.25670591634623e-01 -6.76878684969179e-04 5.98959688645812e-02
526 8.25517074967956e-01 -6.76878684969179e-04 5.98959688645812e-02
527 8.25363558301289e-01 -6.76878684969179e-04 5.98959688645812e-02
528 8.25210041634623e-01 -6.76878684969179e-04 5.98959688645812e-02
529 8.25056524967956e-01 -6.76878684969179e-04 5.98959688645812e-02
530 8.24903008301289e-01 -6.76878684969179e-04 5.98959688645812e-02
531 8.24749491634623e-01 -6.76878684969179e-04 5.98959688645812e-02
532 8.24595974967956e-01 -6.76878684969179e-04 5.98959688645812e-02
533 8.24442458301289e-01 -6.76878684969179e-04 5.98959688645812e-02
534 8.24288941634623e-01 -6.76878684969179e-04 5.98959688645812e-02
535 8.24135424967956e-01 -6.76878684969179e-04 5.98959688645812e-02
536 8.23981908301289e-01 -6.76878684969179e-04 5.98959688645812e-02
537 8.23828391634623e-01 -6.76878684969179e-04 5.98959688645812e-02
538 8.23674874967956e-01 -6.76878684969179e-04 5.98959688645812e-02
539 8.23521358301289e-01 -6.76878684969179e-04 5.98959688645812e-02
540 8.23367841634623e-01 -6.76878684969179e-04 5.98959688645812e-02
541 8.23214324967956e-01 -6.76878684969179e-04 5.98959688645812e-02
542 8.23060808301290e-01 -6.76878684969179e-04 5.98959688645812e-02
543 8.22907291634623e-01 -6.76878684969179e-04 5.98959688645812e-02
544 8.22753774967956e-01 -6.76878684969179e-04 5.98959688645812e-02
545 8.22600258301290e-01 -6.76878684969179e-04 5.98959688645812e-02
546 8.22446741634623e-01 -6.76878684969179e-04 5.98959688645812e-02
547 8.22293224967956e-01 -6.76878684969179e-04 5.98959688645812e-02
548 8.22139708301290e-01 -6.76878684969179e-04 5.98959688645812e-02
549 8.21986191634623e-01 -6.76878684969179e-04 5.98959688645812e-02
550 8.21832674967956e-01 -6.76878684969179e-04 5.98959688645812e-02
551 8.21679158301290e-01 -6.76878684969179e-04 5.98959688645812e-02
552 8.21525641634623e-01 -6.76878684969179e-04 5.98959688645812e-02
553 8.21372124967956e-01 -6.76878684969179e-04 5.98959688645812e-02
554 8.21218608301290e-01 -6.76878684969179e-04 5.98959688645812e-02
555 8.21065091634623e-01 -6.76878684969179e-04 5.98959688645812e-02
556 8.20911574967956e-01 -6.76878684969179e-04 5.98959688645812e-02
557 8.20758058301290e-01 -6.76878684969179e-04 5.98959688645812e-02
558 8.20604541634623e-01 -6.76878684969179e-04 5.98959688645812e-02
559 8.20451024967956e-01 -6.76878684969179e-04 5.98959688645812e-02
560 8.20297508301290e-01 -6.76878684969179e-04 5.98959688645812e-02
561 8.20143991634623e-01 -6.76878684969179e-04 5.98959688645812e-02
562 8.19990474967956e-01 -6.76878684969179e-04 5.98959688645812e-02
563 8.19836958301290e-01 -6.76878684969179e-04 5.98959688645812e-02
564 8.19683441634623e-01 -6.76878684969179e-04 5.98959688645812e-02
565 8.19529924967956e-01 -6.76878684969179e-04 5.98959688645812e-02
566 8.19376408301290e-01 -6.76878684969179e-04 5.98959688645812e-02
567 8.19222891634623e-01 -6.76878684969179e-04 5.98959688645812e-02
568 8.19069374967956e-01 -6.76878684969179e-04 5.98959688645812e-02
569 8.18915858301290e-01 -6.76878684969179e-04 5.98959688645812e-02
570 8.18762341634623e-01 -6.76878684969179e-04 5.98959688645812e-02
571 8.18608824967956e-01 -6.76878684969179e-04 5.98959688645812e-02
572 8.18455308301290e-01 -6.76878684969179e-04 5.98959688645812e-02
573 8.18301791634623e-01 -6.76878684969179e-04 5.98959688645812e-02
574 8.18148274967957e-01 -6.76878684969179e-04 5.98959688645812e-02
575 8.17994758301290e-01 -6.76878684969179e-04 5.98959688645812e-02
576 8.17841241634623e-01 -6.76878684969179e-04 5.98959688645812e-02
577 8.17687724967956e-01 -6.76878684969179e-04 5.98959688645812e-02
578 8.17534208301290e-01 -6.76878684969179e-04 5.98959688645812e-02
579 8.17380691634623e-01 -6.76878684969179e-04 5.98959688645812e-02
580 8.17227174967956e-01 -6.76878684969179e-04 5.98959688645812e-02
581 8.17073658301290e-01 -6.76878684969179e-04 5.98959688645812e-02
582 8.16920141634623e-01 -6.76878684969179e-04 5.98959688645812e-02
583 8.16766624967956e-01 -6.76878684969179e-04 5.98959688645812e-02
584 8.16613108301290e-01 -6.76878684969179e-04 5.98959688645812e-02
585 8.16459591634623e-01 -6.76878684969179e-04 5.98959688645812e-02
586 8.16306074967956e-01 -6.76878684969179e-04 5.98959688645812e-02
587 8.16152558301290e-01 -6.76878684969179e-04 5.98959688645812e-02
588 8.15999041634623e-01 -6.76878684969179e-04 5.98959688645812e-02
589 8.15845524967957e-01 -6.76878684969179e-04 5.98959688645812e-02
590 8.15692008301290e-01 -6.76878684969179e-04 5.98959688645812e-02
591 8.15538491634623e-01 -6.76878684969179e-04 5.98959688645812e-02
592 8.15384974967957e-01 -6.76878684969179e-04 5.98959688645812e-02
593 8.15231458301290e-01 -6.76878684969179e-04 5.98959688645812e-02
594 8.15077941634623e-01 -6.76878684969179e-04 5.98959688645812e-02
595 8.14924424967957e-01 -6.76878684969179e-04 5.98959688645812e-02
596 8.14770908301290e-01 -6.76878684969179e-04 5.98959688645812e-02
597 8.14617391634623e-01 -6.76878684969179e-04 5.98959688645812e-02
598 8.14463874967957e-01 -6.76878684969179e-04 5.98959688645812e-02
599 8.14310358301290e-01 -6.76878684969179e-04 5.98959688645812e-02
600 8.14156841634623e-01 -6.76878684969179e-04 5.98959688645812e-02
601 8.14003324967957e-01 -6.76878684969179e-04 5.98959688645812e-02
602 8.13849808301290e-01 -6.76878684969179e-04 5.98959688645812e-02
603 8.13696291634623e-01 -6.76878684969179e-04 5.98959688645812e-02
604 8.13542774967957e-01 -6.76878684969179e-04 5.98959688645812e-02
605 8.13389258301290e-01 -6.76878684969179e-04 5.98959688645812e-02
606 8.13235741634623e-01 -6.76878684969179e-04 5.98959688645812e-02
607 8.13082224967957e-01 -6.76878684969179e-04 5.98959688645812e-02
608 8.12928708301290e-01 -6.76878684969179e-04 5.98959688645812e-02
609 8.12775191634623e-01 -6.76878684969179e-04 5.98959688645812e-02
610 8.12621674967957e-01 -6.76878684969179e-04 5.98959688645812e-02
611 8.12468158301290e-01 -6.76878684969179e-04 5.98959688645812e-02
612 8.12314641634623e-01 -6.76878684969179e-04 5.98959688645812e-02
613 8.12161124967957e-01 -6.76878684969179e-04 5.98959688645812e-02
614 8.12007608301290e-01 -6.76878684969179e-04 5.98959688645812e-02
615 8.11854091634623e-01 -6.76878684969179e-04 5.98959688645812e-02
616 8.11700574967957e-01 -6.76878684969179e-04 5.98959688645812e-02
617 8.11547058301290e-01 -6.76878684969179e-04 5.98959688645812e-02
618 8.11393541634623e-01 -6.76878684969179e-04 5.98959688645812e-02
619 8.11240024967957e-01 -6.76878684969179e-04 5.98959688645812e-02
620 8.11086508301290e-01 -6.76878684969179e-04 5.98959688645812e-02
621 8.10932991634624e-01 -6.76878684969179e-04 5.98959688645812e-02
622 8.10779474967957e-01 -6.76878684969179e-04 5.98959688645812e-02
623 8.10625958301290e-01 -6.76878684969179e-04 5.98959688645812e-02
624 8.10472441634624e-01 -6.76878684969179e-04 5.98959688645812e-02
625 8.10318924967957e-01 -6.76878684969179e-04 5.98959688645812e-02
626 8.10165408301290e-01 -6.76878684969179e-04 5.98959688645812e-02
627 8.10011891634624e-01 -6.76878684969179e-04 5.98959688645812e-02
628 8.09858374967957e-01 -6.76878684969179e-04 5.98959688645812e-02
629 8.09704858301290e-01 -6.76878684969179e-04 5.98959688645812e-02
630 8.09551341634624e-01 -6.76878684969179e-04 5.98959688645812e-02
631 8.09397824967957e-01 -6.76878684969179e-04 5.98959688645812e-02
632 8.09244308301290e-01 -6.76878684969179e-04 5.98959688645812e-02
633 8.09090791634624e-01 -6.76878684969179e-04 5.98959688645812e-02
634 8.08937274967957e-01 -6.76878684969179e-04 5.98959688645812e-02
635 8.08783758301289e-01 6.37933590634805e-04 6.01295361664870e-02
636 8.08783758301289e-01 5.90101573582913e-04 6.03629862553939e-02
637 8.08783758301289e-01 5.41250642433572e-04 6.05962252581179e-02
638 8.08783758301289e-01 4.91381728617617e-04 6.08292487275383e-02
639 8.08783758301289e-01 4.40495782975558e-04 6.10620522206435e-02
640 8.08783758301289e-01 3.88593775739424e-04 6.12946312986164e-02
641 8.08783758301289e-01 3.35676696514305e-04 6.15269815269187e-02
642 8.08783758301289e-01 2.81745554259458e-04 6.17590984753757e-02
643 8.08783758301289e-01 2.26801377269076e-04 6.19909777182602e-02
644 8.08783758301289e-01 1.70845213152665e-04 6.22226148343777e-02
645 8.08783758301289e-01 1.13878128815116e-04 6.24540054071502e-02
646 8.08783758301289e-01 5.59012104363113e-05 6.26851450247002e-02
647 8.08783758301289e-01 -3.08443654958163e-06 6.29160292799354e-02
648 8.08783758301289e-01 -6.30776874751271e-05 6.31466537706324e-02
649 8.08783758301289e-01 -1.24077398461146e-04 6.33770140995206e-02
650 8.08783758301289e-01 -1.86082406438470e-04 6.36071058743662e-02
651 8.08783758301289e-01 -2.49091529170152e-04 6.38369247080559e-02
652 8.08783758301289e-01 -3.13103565273969e-04 6.40664662186802e-02
653 8.08783758301289e-01 -3.78117294245375e-04 6.42957260296177e-02
654 8.08783758301289e-01 -4.44131476480730e-04 6.45246997696179e-02
655 8.08783758301289e-01 -5.11144853300963e-04 6.47533830728847e-02
656 8.08783758301289e-01 -5.79156146975561e-04 6.49817715791598e-02
657 8.08783758301289e-01 -6.48164060746942e-04 6.52098609338057e-02
658 8.08783758301289e-01 -7.18167278855146e-04 6.54376467878888e-02
659 8.08783758301289e-01 -7.89164466562964e-04 6.56651247982622e-02
660 8.08783758301289e-01 -8.61154270181359e-04 6.58922906276487e-02
661 8.08783758301289e-01 -9.34135317095297e-04 6.61191399447233e-02
662 8.08783758301289e-01 -1.00810621578992e-03 6.63456684241960e-02
663 8.08783758301289e-01 -1.08306555587703e-03 6.65718717468939e-02
664 8.08783758301289e-01 -1.15901190812204e-03 6.67977455998440e-02
665 8.08783758301289e-01 -1.23594382447121e-03 6.70232856763553e-02
666 8.08783758301289e-01 -1.31385983807922e-03 6.72484876761006e-02
667 8.08783758301289e-01 -1.39275846333721e-03 6.74733473051990e-02
668 8.08783758301289e-01 -1.47263819590102e-03 6.76978602762974e-02
669 8.08783758301289e-01 -1.55349751271993e-03 6.79220223086522e-02
670 8.08783758301289e-01 -1.63533487206569e-03 6.81458291282114e-02
671 8.08783758301289e-01 -1.71814871356191e-03 6.83692764676954e-02
672 8.08783758301289e-01 -1.80193745821380e-03 6.85923600666792e-02
673 8.08783758301289e-01 -1.88669950843830e-03 6.88150756716726e-02
674 8.08783758301289e-01 -1.97243324809455e-03 6.90374190362024e-02
675 8.08783758301289e-01 -2.05913704251462e-03 6.92593859208925e-02
676 8.08783758301289e-01 -2.14680923853482e-03 6.94809720935452e-02
677 8.08783758301289e-01 -2.23544816452709e-03 6.97021733292217e-02
678 8.08783758301289e-01 -2.32505213043093e-03 6.99229854103227e-02
679 8.08783758301289e-01 -2.41561942778565e-03 7.01434041266690e-02
680 8.08783758301289e-01 -2.50714832976288e-03 7.03634252755813e-02
681 8.08783758301289e-01 -2.59963709119954e-03 7.05830446619610e-02
682 8.08783758301289e-01 -2.69308394863112e-03 7.08022580983695e-02
683 8.08783758301289e-01 -2.78748712032527e-03 7.10210614051086e-02
684 8.08783758301289e-01 -2.88284480631578e-03 7.12394504102998e-02
685 8.08783758301289e-01 -2.97915518843694e-03 7.14574209499641e-02
686 8.08783758301289e-01 -3.07641643035814e-03 7.16749688681013e-02
687 8.08783758301289e-01 -3.17462667761894e-03 7.18920900167691e-02
688 8.08783758301289e-01 -3.27378405766440e-03 7.21087802561626e-02
689 8.08783758301289e-01 -3.37388667988080e-03 7.23250354546926e-02
690 8.08783758301289e-01 -3.47493263563167e-03 7.25408514890651e-02
691 8.08783758301289e-01 -3.57691999829419e-03 7.27562242443593e-02
692 8.08783758301289e-01 -3.67984682329592e-03 7.29711496141064e-02
693 8.08783758301289e-01 -3.78371114815190e-03 7.31856235003679e-02
694 8.08783758301289e-01 -3.88851099250202e-03 7.33996418138134e-02
695 8.08783758301289e-01 -3.99424435814883e-03 7.36132004737991e-02
696 8.08783758301289e-01 -4.10090922909562e-03 7.38262954084451e-02
697 8.08783758301289e-01 -4.20850357158485e-03 7.40389225547133e-02
698 8.08783758301289e-01 -4.31702533413694e-03 7.42510778584850e-02
699 8.08783758301289e-01 -4.42647244758936e-03 7.44627572746379e-02
700 8.08783758301289e-01 -4.53684282513613e-03 7.46739567671232e-02
701 8.08783758301289e-01 -4.64813436236754e-03 7.48846723090430e-02
702 8.08783758301289e-01 -4.76034493731037e-03 7.50948998827265e-02
703 8.08783758301289e-01 -4.87347241046825e-03 7.53046354798072e-02
704 8.08783758301289e-01 -4.98751462486251e-03 7.55138751012987e-02
705 8.08783758301289e-01 -5.10246940607329e-03 7.57226147576716e-02
706 8.08783758301289e-01 -5.21833456228102e-03 7.59308504689289e-02
707 8.08783758301289e-01 -5.33510788430817e-03 7.61385782646824e-02
708 8.08783758301289e-01 -5.45278714566140e-03 7.63457941842283e-02
709 8.08783758301289e-01 -5.57137010257403e-03 7.65524942766224e-02
710 8.08783758301289e-01 -5.69085449404877e-03 7.67586746007559e-02
711 8.08783758301289e-01 -5.81123804190089e-03 7.69643312254301e-02
712 8.08783758301289e-01 -5.93251845080160e-03 7.71694602294319e-02
713 8.08783758301289e-01 -6.05469340832185e-03 7.73740577016079e-02
714 8.08783758301289e-01 -6.17776058497642e-03 7.75781197409394e-02
715 8.08783758301289e-01 -6.30171763426832e-03 7.77816424566168e-02
716 8.08783758301289e-01 -6.42656219273353e-03 7.79846219681137e-02
717 8.08783758301289e-01 -6.55229187998611e-03 7.81870544052606e-02
718 8.08783758301289e-01 -6.67890429876349e-03 7.83889359083192e-02
719 8.08783758301289e-01 -6.80639703497229e-03 7.85902626280558e-02
720 8.08783758301289e-01 -6.93476765773426e-03 7.87910307258143e-02
721 8.08783758301289e-01 -7.06401371943269e-03 7.89912363735901e-02
722 8.08783758301289e-01 -7.19413275575902e-03 7.91908757541025e-02
723 8.08783758301289e-01 -7.32512228575988e-03 7.93899450608678e-02
724 8.08783758301289e-01 -7.45697981188440e-03 7.95884404982718e-02
725 8.08783758301289e-01 -7.58970282003175e-03 7.97863582816421e-02
726 8.08783758301289e-01 -7.72328877959916e-03 7.99836946373202e-02
727 8.08783758301289e-01 -7.85773514353014e-03 8.01804458027338e-02
728 8.08783758301289e-01 -7.99303934836303e-03 8.03766080264682e-02
729 8.08783758301289e-01 -8.12919881427991e-03 8.05721775683378e-02
730 8.08783758301289e-01 -8.26621094515575e-03 8.07671506994578e-02
731 8.08783758301289e-01 -8.40407312860793e-03 8.09615237023149e-02
732 8.08783758301289e-01 -8.54278273604608e-03 8.11552928708382e-02
733 8.08783758301289e-01 -8.68233712272212e-03 8.13484545104703e-02
734 8.08783758301289e-01 -8.82273362778079e-03 8.15410049382371e-02
735 8.08783758301289e-01 -8.96396957431028e-03 8.17329404828186e-02
736 8.08783758301289e-01 -9.10604226939334e-03 8.19242574846185e-02
737 8.08783758301289e-01 -9.24894900415859e-03 8.21149522958343e-02
738 8.08783758301289e-01 -9.39268705383223e-03 8.23050212805264e-02
739 8.08783758301289e-01 -9.53725367778989e-03 8.24944608146880e-02
740 8.08783758301289e-01 -9.68264611960897e-03 8.26832672863137e-02
741 8.08783758301289e-01 -9.82886160712117e-03 8.28714370954688e-02
742 8.08783758301289e-01 -9.97589735246533e-03 8.30589666543574e-02
743 8.08783758301289e-01 -1.01237505521406e-02 8.32458523873914e-02
744 8.08783758301289e-01 -1.02724183870599e-02 8.34320907312583e-02
745 8.08783758301289e-01 -1.04218980226037e-02 8.36176781349892e-02
746 8.08783758301289e-01 -1.05721866086740e-02 8.38026110600265e-02
747 8.08783758301289e-01 -1.07232812797486e-02 8.39868859802917e-02
748 8.08783758301289e-01 -1.08751791549360e-02 8.41704993822519e-02
749 8.08783758301289e-01 -1.10278773380302e-02 8.43534477649877e-02
750 8.08783758301289e-01 -1.11813729175656e-02 8.45357276402590e-02
751 8.08783758301289e-01 -1.13356629668732e-02 8.47173355325725e-02
752 8.08783758301289e-01 -1.14907445441358e-02 8.48982679792470e-02
753 8.08783758301289e-01 -1.16466146924441e-02 8.50785215304803e-02
754 8.08783758301289e-01 -1.18032704398537e-02 8.52580927494142e-02
755 8.08783758301289e-01 -1.19607087994410e-02 8.54369782122007e-02
756 8.08783758301289e-01 -1.21189267693607e-02 8.56151745080667e-02
757 8.08783758301289e-01 -1.22779213329027e-02 8.57926782393796e-02
758 8.08783758301289e-01 -1.24376894585497e-02 8.59694860217114e-02
759 8.08783758301289e-01 -1.25982281000353e-02 8.61455944839040e-02
760 8.08783758301289e-01 -1.27595341964016e-02 8.63210002681329e-02
761 8.08783758301289e-01 -1.29216046720577e-02 8.64957000299715e-02
762 8.08783758301289e-01 -1.30844364368388e-02 8.66696904384547e-02
763 8.08783758301289e-01 -1.32480263860645e-02 8.68429681761425e-02
764 8.08783758301289e-01 -1.34123714005983e-02 8.70155299391834e-02
765 8.08783758301289e-01 -1.35774683469069e-02 8.71873724373770e-02
766 8.08783758301289e-01 -1.37433140771204e-02 8.73584923942373e-02
767 8.08783758301289e-01 -1.39099054290915e-02 8.75288865470545e-02
768 8.08783758301289e-01 -1.40772392264568e-02 8.76985516469577e-02
769 8.08783758301289e-01 -1.42453122786965e-02 8.78674844589769e-02
770 8.08783758301289e-01 -1.44141213811957e-02 8.80356817621042e-02
771 8.08783758301289e-01 -1.45836633153054e-02 8.82031403493556e-02
772 8.08783758301289e-01 -1.47539348484037e-02 8.83698570278321e-02
773 8.08783758301289e-01 -1.49249327339577e-02 8.85358286187804e-02
774 8.08783758301289e-01 -1.50966537115853e-02 8.87010519576538e-02
775 8.08783758301289e-01 -1.52690945071174e-02 8.88655238941723e-02
776 8.08783758301289e-01 -1.54422518326601e-02 8.90292412923827e-02
777 8.08783758301289e-01 -1.56161223866577e-02 8.91922010307184e-02
778 8.08783758301289e-01 -1.57907028539555e-02 8.93544000020591e-02
779 8.08783758301289e-01 -1.59659899058629e-02 8.95158351137896e-02
780 8.08783758301289e-01 -1.61419802002173e-02 8.96765032878595e-02
781 8.08783758301289e-01 -1.63186703814471e-02 8.98364014608410e-02
782 8.08783758301289e-01 -1.64960570806365e-02 8.99955265839881e-02
783 8.08783758301289e-01 -1.66741369155891e-02 9.01538756232941e-02
784 8.08783758301289e-01 -1.68529064908926e-02 9.03114455595500e-02
785 8.08783758301289e-01 -1.70323623979838e-02 9.04682333884015e-02
786 8.08783758301289e-01 -1.72125012152130e-02 9.06242361204068e-02
787 8.08783758301289e-01 -1.73933195079099e-02 9.07794507810935e-02
788 8.08783758301289e-01 -1.75748138284485e-02 9.09338744110148e-02
789 8.08783758301289e-01 -1.77569807163135e-02 9.10875040658067e-02
790 8.08783758301289e-01 -1.79398166981654e-02 9.12403368162436e-02
791 8.08783758301289e-01 -1.81233182879077e-02 9.13923697482942e-02
792 8.08783758301289e-01 -1.83074819867526e-02 9.15435999631775e-02
793 8.08783758301289e-01 -1.84923042832880e-02 9.16940245774175e-02
794 8.08783758301289e-01 -1.86777816535447e-02 9.18436407228984e-02
795 8.08783758301289e-01 -1.88639105610629e-02 9.19924455469195e-02
796 8.08783758301289e-01 -1.90506874569605e-02 9.21404362122492e-02
797 8.08783758301289e-01 -1.92381087800002e-02 9.22876098971793e-02
798 8.08783758301289e-01 -1.94261709566574e-02 9.24339637955791e-02
799 8.08783758301289e-01 -1.96148704011887e-02 9.25794951169484e-02
800 8.08783758301289e-01 -1.98042035156998e-02 9.27242010864707e-02
801 8.08783758301289e-01 -1.99941666902146e-02 9.28680789450666e-02
802 8.08783758301289e-01 -2.01847563027435e-02 9.30111259494461e-02
803 8.08783758301289e-01 -2.03759687193529e-02 9.31533393721609e-02
804 8.08783758301289e-01 -2.05678002942344e-02 9.32947165016563e-02
805 8.08783758301289e-01 -2.07602473697740e-02 9.34352546423233e-02
806 8.08783758301289e-01 -2.09533062766223e-02 9.35749511145494e-02
807 8.08783758301289e-01 -2.11469733337641e-02 9.37138032547702e-02
808 8.08783758301289e-01 -2.13412448485888e-02 9.38518084155202e-02
809 8.08783758301289e-01 -2.15361171169605e-02 9.39889639654826e-02
810 8.08783758301289e-01 -2.17315864232893e-02 9.41252672895405e-02
811 8.08783758301289e-01 -2.19276490406013e-02 9.42607157888259e-02
812 8.08783758301289e-01 -2.21243012306101e-02 9.43953068807696e-02
813 8.08783758301289e-01 -2.23215392437884e-02 9.45290379991504e-02
814 8.08783758301289e-01 -2.25193593194386e-02 9.46619065941441e-02
815 8.08783758301289e-01 -2.27177576857654e-02 9.47939101323721e-02
816 8.08783758301289e-01 -2.29167305599473e-02 9.49250460969497e-02
817 8.08783758301289e-01 -2.31162741482086e-02 9.50553119875338e-02
818 8.08783758301289e-01 -2.33163846458921e-02 9.51847053203710e-02
819 8.08783758301289e-01 -2.35170582375314e-02 9.53132236283449e-02
820 8.08783758301289e-01 -2.37182910969236e-02 9.54408644610228e-02
821 8.08783758301289e-01 -2.39200793872025e-02 9.55676253847028e-02
822 8.08783758301289e-01 -2.41224192609115e-02 9.56935039824598e-02
823 8.08783758301289e-01 -2.43253068600772e-02 9.58184978541923e-02
824 8.08783758301289e-01 -2.45287383162827e-02 9.59426046166672e-02
825 8.08783758301289e-01 -2.47327097507414e-02 9.60658219035660e-02
826 8.08783758301289e-01 -2.49372172743714e-02 9.61881473655296e-02
827 8.08783758301289e-01 -2.51422569878690e-02 9.63095786702031e-02
828 8.08783758301289e-01 -2.53478249817833e-02 9.64301135022805e-02
829 8.08783758301289e-01 -2.55539173365911e-02 9.65497495635483e-02
830 8.08783758301289e-01 -2.57605301227709e-02 9.66684845729299e-02
831 8.08783758301289e-01 -2.59676594008787e-02 9.67863162665291e-02
832 8.08783758301289e-01 -2.61753012216222e-02 9.69032423976726e-02
833 8.08783758301289e-01 -2.63834516259368e-02 9.70192607369536e-02
834 8.08783758301289e-01 -2.65921066450610e-02 9.71343690722738e-02
835 8.08783758301289e-01 -2.68012623006114e-02 9.72485652088859e-02
836 8.08783758301289e-01 -2.70109146046597e-02 9.73618469694351e-02
837 8.08783758301289e-01 -2.72210595598075e-02 9.74742121940012e-02
838 8.08783758301289e-01 -2.74316931592637e-02 9.75856587401389e-02
839 8.08783758301289e-01 -2.76428113869197e-02 9.76961844829196e-02
840 8.08783758301289e-01 -2.78544102174272e-02 9.78057873149713e-02
841 8.08783758301289e-01 -2.80664856162739e-02 9.79144651465189e-02
842 8.08783758301289e-01 -2.82790335398611e-02 9.80222159054241e-02
843 8.08783758301289e-01 -2.84920499355804e-02 9.81290375372251e-02
844 8.08783758301289e-01 -2.87055307418914e-02 9.82349280051753e-02
845 8.08783758301289e-01 -2.89194718883985e-02 9.83398852902826e-02
846 8.08783758301289e-01 -2.91338692959292e-02 9.84439073913476e-02
847 8.08783758301289e-01 -2.93487188766115e-02 9.85469923250020e-02
848 8.08783758301289e-01 -2.95640165339517e-02 9.86491381257461e-02
849 8.08783758301289e-01 -2.97797581629131e-02 9.87503428459867e-02
850 8.08783758301289e-01 -2.99959396499935e-02 9.88506045560737e-02
851 8.08783758301289e-01 -3.02125568733042e-02 9.89499213443375e-02
852 8.08783758301289e-01 -3.04296057026485e-02 9.90482913171248e-02
853 8.08783758301289e-01 -3.06470819996000e-02 9.91457125988353e-02
854 8.08783758301289e-01 -3.08649816175823e-02 9.92421833319571e-02
855 8.08783758301289e-01 -3.10833004019473e-02 9.93377016771022e-02
856 8.08783758301289e-01 -3.13020341900549e-02 9.94322658130417e-02
857 8.08783758301289e-01 -3.15211788113521e-02 9.95258739367402e-02
858 8.08783758301289e-01 -3.17407300874528e-02 9.96185242633907e-02
859 8.08783758301289e-01 -3.19606838322171e-02 9.97102150264479e-02
860 8.08783758301289e-01 -3.21810358518315e-02 9.98009444776627e-02
861 8.08783758301289e-01 -3.24017819448885e-02 9.98907108871150e-02
862 8.08783758301289e-01 -3.26229179024669e-02 9.99795125432468e-02
863 8.08783758301289e-01 -3.28444395082122e-02 1.00067347752895e-01
864 8.08783758301289e-01 -3.30663425384166e-02 1.00154214841323e-01
865 8.08783758301289e-01 -3.32886227620999e-02 1.00240112152254e-01
866 8.08783758301289e-01 -3.35112759410901e-02 1.00325038047901e-01
867 8.08783758301289e-01 -3.37342978301038e-02 1.00408990908999e-01
868 8.08783758301289e-01 -3.39576841768280e-02 1.00491969134837e-01
869 8.08783758301289e-01 -3.41814307220001e-02 1.00573971143284e-01
870 8.08783758301289e-01 -3.44055331994901e-02 1.00654995370826e-01
871 8.08783758301289e-01 -3.46299873363813e-02 1.00735040272589e-01
872 8.08783758301289e-01 -3.48547888530521e-02 1.00814104322374e-01
873 8.08783758301289e-01 -3.50799334632572e-02 1.00892186012683e-01
874 8.08783758301289e-01 -3.53054168742101e-02 1.00969283854747e-01
875 8.08783758301289e-01 -3.55312347866640e-02 1.01045396378557e-01
876 8.08783758301289e-01 -3.57573828949944e-02 1.01120522132893e-01
877 8.08783758301289e-01 -3.59838568872810e-02 1.01194659685345e-01
878 8.08783758301289e-01 -3.62106524453901e-02 1.01267807622349e-01
879 8.08783758301289e-01 -3.64377652450564e-02 1.01339964549207e-01
880 8.08783758301289e-01 -3.66651909559663e-02 1.01411129090117e-01
881 8.08783758301289e-01 -3.68929252418395e-02 1.01481299888201e-01
882 8.08783758301289e-01 -3.71209637605126e-02 1.01550475605525e-01
883 8.08783758301289e-01 -3.73493021640210e-02 1.01618654923130e-01
884 8.08783758301289e-01 -3.75779360986828e-02 1.01685836541054e-01
885 8.08783758301289e-01 -3.78068612051807e-02 1.01752019178360e-01
886 8.08783758301289e-01 -3.80360731186461e-02 1.01817201573157e-01
887 8.08783758301289e-01 -3.82655674687417e-02 1.01881382482624e-01
888 8.08783758301289e-01 -3.84953398797452e-02 1.01944560683038e-01
889 8.08783758301289e-01 -3.87253859706323e-02 1.02006734969792e-01
890 8.08783758301289e-01 -3.89557013551609e-02 1.02067904157423e-01
891 8.08783758301289e-01 -3.91862816419539e-02 1.02128067079628e-01
892 8.08783758301289e-01 -3.94171224345837e-02 1.02187222589295e-01
893 8.08783758301289e-01 -3.96482193316555e-02 1.02245369558517e-01
894 8.08783758301289e-01 -3.98795679268915e-02 1.02302506878617e-01
895 8.08783758301289e-01 -4.01111638092147e-02 1.02358633460169e-01
896 8.08783758301289e-01 -4.03430025628334e-02 1.02413748233021e-01
897 8.08783758301289e-01 -4.05750797673247e-02 1.02467850146308e-01
898 8.08783758301289e-01 -4.08073909977196e-02 1.02520938168482e-01
899 8.08783758301289e-01 -4.10399318245867e-02 1.02573011287322e-01
900 8.08783758301289e-01 -4.12726978141171e-02 1.02624068509963e-01
901 8.08783758301289e-01 -4.15056845282088e-02 1.02674108862906e-01
902 8.08783758301289e-01 -4.17388875245511e-02 1.02723131392042e-01
903 8.08783758301289e-01 -4.19723023567097e-02 1.02771135162667e-01
904 8.08783758301289e-01 -4.22059245742110e-02 1.02818119259505e-01
905 8.08783758301289e-01 -4.24397497226275e-02 1.02864082786718e-01
906 8.08783758301289e-01 -4.26737733436623e-02 1.02909024867929e-01
907 8.08783758301289e-01 -4.29079909752344e-02 1.02952944646238e-01
908 8.08783758301289e-01 -4.31423981515634e-02 1.02995841284233e-01
909 8.08783758301289e-01 -4.33769904032552e-02 1.03037713964014e-01
910 8.08783758301289e-01 -4.36117632573867e-02 1.03078561887203e-01
911 8.08783758301289e-01 -4.38467122375912e-02 1.03118384274961e-01
912 8.08783758301289e-01 -4.40818328641442e-02 1.03157180368002e-01
913 8.08783758301289e-01 -4.43171206540480e-02 1.03194949426608e-01
914 8.08783758301289e-01 -4.45525711211180e-02 1.03231690730646e-01
915 8.08783758301289e-01 -4.47881797760677e-02 1.03267403579576e-01
916 8.08783758301289e-01 -4.50239421265944e-02 1.03302087292468e-01
917 8.08783758301289e-01 -4.52598536774651e-02 1.03335741208015e-01
918 8.08783758301289e-01 -4.54959099306020e-02 1.03368364684544e-01
919 8.08783758301289e-01 -4.57321063851680e-02 1.03399957100031e-01
920 8.08783758301289e-01 -4.59684385376533e-02 1.03430517852109e-01
921 8.08783758301289e-01 -4.62049018819603e-02 1.03460046358082e-01
922 8.08783758301289e-01 -4.64414919094903e-02 1.03488542054937e-01
923 8.08783758301289e-01 -4.66782041092290e-02 1.03516004399351e-01
924 8.08783758301289e-01 -4.69150339678328e-02 1.03542432867706e-01
925 8.08783758301289e-01 -4.71519769697146e-02 1.03567826956096e-01
926 8.08783758301289e-01 -4.73890285971300e-02 1.03592186180336e-01
927 8.08783758301289e-01 -4.76261843302636e-02 1.03615510075974e-01
928 8.08783758301289e-01 -4.78634396473150e-02 1.03637798198298e-01
929 8.08783758301289e-01 -4.81007900245849e-02 1.03659050122345e-01
930 8.08783758301289e-01 -4.83382309365617e-02 1.03679265442908e-01
931 8.08783758301289e-01 -4.85757578560075e-02 1.03698443774548e-01
932 8.08783758301289e-01 -4.88133662540446e-02 1.03716584751593e-01
933 8.08783758301289e-01 -4.90510516002415e-02 1.03733688028153e-01
934 9.38206737763607e-01 -1.50264027886518e-04 5.98996049375693e-02
935 9.38054640842612e-01 -2.46923339084125e-04 5.98992844657732e-02
936 9.37889536294135e-01 -3.19912629824929e-04 5.98989391087766e-02
937 9.37719378095932e-01 -3.80333458512279e-04 5.98985859392557e-02
938 9.37546583863674e-01 -4.32788601843530e-04 5.98982299044018e-02
939 9.37372183957099e-01 -4.79649188595945e-04 5.98978729875293e-02
940 9.37196708100028e-01 -5.22314290925802e-04 5.98975161361990e-02
941 9.37020463148364e-01 -5.61687408361822e-04 5.98971598522678e-02
942 9.36843642197353e-01 -5.98390617023424e-04 5.98968044188821e-02
943 9.36666374294259e-01 -6.32872714700503e-04 5.98964500043195e-02
944 9.36488737963886e-01 -6.65404619388883e-04 5.98960974326826e-02
945 9.36310794468038e-01 -6.96213368068051e-04 5.98957472436944e-02
946 9.36132597275284e-01 -7.25520027367482e-04 5.98953994191185e-02
947 9.35954187223795e-01 -7.53502371214316e-04 5.98950539286148e-02
948 9.35775596181669e-01 -7.80305843254155e-04 5.98947107335579e-02
949 9.35596849476972e-01 -8.06051204260164e-04 5.98943697903320e-02
950 9.35417967560095e-01 -8.30840005948079e-04 5.98940310545532e-02
951 9.35238967171629e-01 -8.54758600586609e-04 5.98936944821922e-02
952 9.35059862182051e-01 -8.77881137303842e-04 5.98933600300403e-02
953 9.34880663789243e-01 -9.00268440403017e-04 5.98930277053605e-02
954 9.34701380250873e-01 -9.21963511533325e-04 5.98926976703743e-02
955 9.34522019422545e-01 -9.43010190836052e-04 5.98923699867272e-02
956 9.34342588225478e-01 -9.63448401097780e-04 5.98920446954188e-02
957 9.34163092732973e-01 -9.83314150121887e-04 5.98917218284981e-02
958 9.33983538301189e-01 -1.00264004617811e-03 5.98914014099119e-02
959 9.33803929675799e-01 -1.02145572944931e-03 5.98910834579868e-02
960 9.33624271079709e-01 -1.03978823577573e-03 5.98907679864848e-02
961 9.33444566285725e-01 -1.05766230520900e-03 5.98904550045758e-02
962 9.33264818677156e-01 -1.07510064542009e-03 5.98901445130224e-02
963 9.33085031298603e-01 -1.09212415721187e-03 5.98898365081333e-02
964 9.32905206898819e-01 -1.10875212892788e-03 5.98895309845569e-02
965 9.32725347967063e-01 -1.12500240492501e-03 5.98892279355592e-02
966 9.32545456764110e-01 -1.14089153211677e-03 5.98889273532497e-02
967 9.32365535348796e-01 -1.15643488797187e-03 5.98886292287713e-02
968 9.32185585600868e-01 -1.17164679275352e-03 5.98883335524611e-02
969 9.32005609240715e-01 -1.18654060830416e-03 5.98880403139875e-02
970 9.31825607846508e-01 -1.20112882529173e-03 5.98877495024666e-02
971 9.31645582869046e-01 -1.21542314061729e-03 5.98874611047252e-02
972 9.31465535583501e-01 -1.22943373317782e-03 5.98871751184908e-02
973 9.31285467038819e-01 -1.24316845998209e-03 5.98868915801466e-02
974 9.31105378244299e-01 -1.25663513490379e-03 5.98866105152413e-02
975 9.30925270148329e-01 -1.26984122165536e-03 5.98863319462822e-02
976 9.30745143642283e-01 -1.28279384578675e-03 5.98860558923674e-02
977 9.30564999564810e-01 -1.29549981567218e-03 5.98857823696752e-02
978 9.30384838705742e-01 -1.30796564184039e-03 5.98855113928582e-02
979 9.30204661809646e-01 -1.32019755483803e-03 5.98852429751766e-02
980 9.30024469579079e-01 -1.33220152177698e-03 5.98849771276228e-02
981 9.29844262677552e-01 -1.34398326163474e-03 5.98847138585725e-02
982 9.29664041732238e-01 -1.35554825937014e-03 5.98844531753051e-02
983 9.29483807336462e-01 -1.36690177906506e-03 5.98841950842038e-02
984 9.29303560051981e-01 -1.37804887613868e-03 5.98839395908195e-02
985 9.29123300411082e-01 -1.38899440870883e-03 5.98836866999315e-02
986 9.28943028918514e-01 -1.39974304817229e-03 5.98834364156019e-02
987 9.28762746053263e-01 -1.41029928906830e-03 5.98831887412265e-02
988 9.28582452270195e-01 -1.42066745828444e-03 5.98829436794641e-02
989 9.28402148001573e-01 -1.43085172368015e-03 5.98827012283084e-02
990 9.28221833658458e-01 -1.44085610213353e-03 5.98824613803764e-02
991 9.28041509632013e-01 -1.45068446703869e-03 5.98822241278673e-02
992 9.27861176294675e-01 -1.46034055535866e-03 5.98819894628990e-02
993 9.27680834001288e-01 -1.46982797423912e-03 5.98817573775206e-02
994 9.27500483090130e-01 -1.47915020721757e-03 5.98815278637223e-02
995 9.27320123883879e-01 -1.48831062005646e-03 5.98813009134457e-02
996 9.27139756690502e-01 -1.49731246622784e-03 5.98810765185928e-02
997 9.26959381804090e-01 -1.50615889207460e-03 5.98808546710341e-02
998 9.26778999505633e-01 -1.51485294167136e-03 5.98806353626162e-02
999 9.26598610063745e-01 -1.52339756140595e-03 5.98804185851685e-02
1000 9.26418213735337e-01 -1.53179560430087e-03 5.98802043305099e-02
1001 9.26237810766252e-01 -1.54004983409256e-03 5.98799925904542e-02
1002 9.26057401391852e-01 -1.54816292908479e-03 5.98797833568156e-02
1003 9.25876985837574e-01 -1.55613748579120e-03 5.98795766214135e-02
1004 9.25696564319444e-01 -1.56397602238105e-03 5.98793723760765e-02
1005 9.25516137044567e-01 -1.57168098194079e-03 5.98791706126474e-02
1006 9.25335704211576e-01 -1.57925473556356e-03 5.98789713229857e-02
1007 9.25155266011066e-01 -1.58669958527736e-03 5.98787744989720e-02
1008 9.24974822625994e-01 -1.59401776682319e-03 5.98785801296292e-02
1009 9.24794374228143e-01 -1.60121135310171e-03 5.98783881979446e-02
1010 9.24613920895520e-01 -1.60828013276313e-03 5.98781987537237e-02
1011 9.24433462733197e-01 -1.61522459284388e-03 5.98780118278545e-02
1012 9.24252999873854e-01 -1.62204597365895e-03 5.98778274298381e-02
1013 9.24072532446869e-01 -1.62874549525650e-03 5.98776455685498e-02
1014 9.23892060578418e-01 -1.63532435786299e-03 5.98774662514461e-02
1015 9.23711584391570e-01 -1.64178374234007e-03 5.98772894854658e-02
1016 9.23531104006373e-01 -1.64812481061996e-03 5.98771152773260e-02
1017 9.23350619539946e-01 -1.65434870612428e-03 5.98769436334874e-02
1018 9.23170131106560e-01 -1.66045655416705e-03 5.98767745593712e-02
1019 9.22989638817721e-01 -1.66644946235098e-03 5.98766080594440e-02
1020 9.22809142782248e-01 -1.67232852095633e-03 5.98764441379759e-02
1021 9.22628643106350e-01 -1.67809480331525e-03 5.98762827990749e-02
1022 9.22448139893698e-01 -1.68374936617581e-03 5.98761240466910e-02
1023 9.22267633245495e-01 -1.68929325005590e-03 5.98759678846209e-02
1024 9.22087123260549e-01 -1.69472747958775e-03 5.98758143165119e-02
1025 9.21906610035334e-01 -1.70005306385296e-03 5.98756633458658e-02
1026 9.21726093664060e-01 -1.70527099670740e-03 5.98755149759786e-02
1027 9.21545574238729e-01 -1.71038225704377e-03 5.98753692072217e-02
1028 9.21365051849203e-01 -1.71538780908175e-03 5.98752260361079e-02
1029 9.21184526583256e-01 -1.72028860274089e-03 5.98750854588694e-02
1030 9.21003998526632e-01 -1.72508557393906e-03 5.98749474717319e-02
1031 9.20823467763097e-01 -1.72977964487778e-03 5.98748120709160e-02
1032 9.20642934374499e-01 -1.73437172432009e-03 5.98746792526371e-02
1033 9.20462398440812e-01 -1.73886270786136e-03 5.98745490131067e-02
1034 9.20281860040186e-01 -1.74325347819307e-03 5.98744213485330e-02
1035 9.20101319249002e-01 -1.74754490535993e-03 5.98742962551210e-02
1036 9.19920776141909e-01 -1.75173784701043e-03 5.98741737290736e-02
1037 9.19740230791877e-01 -1.75583314864115e-03 5.98740537665918e-02
1038 9.19559683270236e-01 -1.75983164383485e-03 5.98739363638757e-02
1039 9.19379133646719e-01 -1.76373415449271e-03 5.98738215171245e-02
1040 9.19198581989507e-01 -1.76754149106078e-03 5.98737092225371e-02
1041 9.19018028365262e-01 -1.77125445275081e-03 5.98735994763131e-02
1042 9.18837472839174e-01 -1.77487382775574e-03 5.98734922746525e-02
1043 9.18656915474990e-01 -1.77840039345985e-03 5.98733876137566e-02
1044 9.18476356335056e-01 -1.78183491664385e-03 5.98732854898285e-02
1045 9.18295795480352e-01 -1.78517815368285e-03 5.98731858989783e-02
1046 9.18115232970318e-01 -1.78843083904365e-03 5.98730888305634e-02
1047 9.17934668865328e-01 -1.79159382487355e-03 5.98729942674172e-02
1048 9.17754103222820e-01 -1.79466786216890e-03 5.98729022031411e-02
1049 9.17573536090676e-01 -1.79765319406663e-03 5.98728126439790e-02
1050 9.17392967515603e-01 -1.80055001305895e-03 5.98727255974357e-02
1051 9.17212397544018e-01 -1.80335851100807e-03 5.98726410702434e-02
1052 9.17031826222043e-01 -1.80607887915324e-03 5.98725590685311e-02
1053 9.16851253595513e-01 -1.80871130812838e-03 5.98724795983802e-02
1054 9.16670679709975e-01 -1.81125598796487e-03 5.98724026658395e-02
1055 9.16490104610689e-01 -1.81371310808844e-03 5.98723282767086e-02
1056 9.16309528342632e-01 -1.81608285730422e-03 5.98722564358500e-02
1057 9.16128950950498e-01 -1.81836542381592e-03 5.98721871478627e-02
1058 9.15948372478701e-01 -1.82056099523412e-03 5.98721204173192e-02
1059 9.15767792971377e-01 -1.82266975857852e-03 5.98720562487660e-02
1060 9.15587212472383e-01 -1.82469190028023e-03 5.98719946467239e-02
1061 9.15406631025303e-01 -1.82662760618405e-03 5.98719356156878e-02
1062 9.15226048673447e-01 -1.82847706155071e-03 5.98718791601270e-02
1063 9.15045465459854e-01 -1.83024045105915e-03 5.98718252844854e-02
1064 9.14864881427292e-01 -1.83191795879788e-03 5.98717739928181e-02
1065 9.14684296618262e-01 -1.83350976817130e-03 5.98717252855796e-02
1066 9.14503711074998e-01 -1.83501606194845e-03 5.98716791611833e-02
1067 9.14323124839468e-01 -1.83643702232554e-03 5.98716356180199e-02
1068 9.14142537953379e-01 -1.83777283092889e-03 5.98715946544804e-02
1069 9.13961950458177e-01 -1.83902366881704e-03 5.98715562689568e-02
1070 9.13781362395046e-01 -1.84018971648302e-03 5.98715204598415e-02
1071 9.13600773804913e-01 -1.84127115385645e-03 5.98714872255275e-02
1072 9.13420184728450e-01 -1.84226816030577e-03 5.98714565644087e-02
1073 9.13239595206071e-01 -1.84318091464035e-03 5.98714284748795e-02
1074 9.13059005277940e-01 -1.84400959511267e-03 5.98714029553351e-02
1075 9.12878414983966e-01 -1.84475437942043e-03 5.98713800041714e-02
1076 9.12697824363813e-01 -1.84541544470868e-03 5.98713596197850e-02
1077 9.12517233456893e-01 -1.84599296757200e-03 5.98713418005732e-02
1078 9.12336642302371e-01 -1.84648712405652e-03 5.98713265449342e-02
1079 9.12156050939169e-01 -1.84689808966211e-03 5.98713138512667e-02
1080 9.11975459405962e-01 -1.84722603934441e-03 5.98713037179704e-02
1081 9.11794867741186e-01 -1.84747114751694e-03 5.98712961434457e-02
1082 9.11614275983034e-01 -1.84763358805319e-03 5.98712911260938e-02
1083 9.11433684169458e-01 -1.84771352159594e-03 5.98712886636918e-02
1084 9.11253092338197e-01 -1.84771095088704e-03 5.98712887545770e-02
1085 9.11072500527013e-01 -1.84762580139797e-03 5.98712913983302e-02
1086 9.10891908773785e-01 -1.84745798673347e-03 5.98712965948938e-02
1087 9.10711317116526e-01 -1.84720740857792e-03 5.98713043445728e-02
1088 9.10530725593405e-01 -1.84687395662831e-03 5.98713146480358e-02
1089 9.10350134242772e-01 -1.84645750851958e-03 5.98713275063166e-02
1090 9.10169543103179e-01 -1.84595792974217e-03 5.98713429208150e-02
1091 9.09988952213405e-01 -1.84537507355157e-03 5.98713608932995e-02
1092 9.09808361612476e-01 -1.84470878086984e-03 5.98713814259086e-02
1093 9.09627771339691e-01 -1.84395888017886e-03 5.98714045211534e-02
1094 9.09447181434646e-01 -1.84312518740531e-03 5.98714301819200e-02
1095 9.09266591937257e-01 -1.84220750579693e-03 5.98714584114723e-02
1096 9.09086002887788e-01 -1.84120562579021e-03 5.98714892134551e-02
1097 9.08905414326873e-01 -1.84011932486905e-03 5.98715225918970e-02
1098 9.08724826295544e-01 -1.83894836741423e-03 5.98715585512144e-02
1099 9.08544238835257e-01 -1.83769250454358e-03 5.98715970962150e-02
1100 9.08363651987920e-01 -1.83635147394249e-03 5.98716382321019e-02
1101 9.08183065795856e-01 -1.83492500759287e-03 5.98716819642248e-02
1102 9.08002480299763e-01 -1.83341307541033e-03 5.98717282886808e-02
1103 9.07821895540894e-01 -1.83181559191343e-03 5.98717771990817e-02
1104 9.07641311561506e-01 -1.83013237600463e-03 5.98718286913944e-02
1105 9.07460728404119e-01 -1.82836324602478e-03 5.98718827615626e-02
1106 9.07280146111519e-01 -1.82650801975094e-03 5.98719394055065e-02
1107 9.07099564726760e-01 -1.82456651439425e-03 5.98719986191228e-02
1108 9.06918984293162e-01 -1.82253854659777e-03 5.98720603982844e-02
1109 9.06738404854319e-01 -1.82042393243436e-03 5.98721247388403e-02
1110 9.06557826454095e-01 -1.81822248740446e-03 5.98721916366156e-02
1111 9.06377249136628e-01 -1.81593402643394e-03 5.98722610874112e-02
1112 9.06196672946334e-01 -1.81355836387192e-03 5.98723330870039e-02
1113 9.06016097927905e-01 -1.81109531348857e-03 5.98724076311461e-02
1114 9.05835524126310e-01 -1.80854468847289e-03 5.98724847155656e-02
1115 9.05654951586804e-01 -1.80590630143053e-03 5.98725643359656e-02
1116 9.05474380354920e-01 -1.80317996438155e-03 5.98726464880245e-02
1117 9.05293810476479e-01 -1.80036548875819e-03 5.98727311673958e-02
1118 9.05113241997587e-01 -1.79746268540264e-03 5.98728183697080e-02
1119 9.04932674964638e-01 -1.79447136456478e-03 5.98729080905642e-02
1120 9.04752109424316e-01 -1.79139133587233e-03 5.98730003245519e-02
1121 9.04571545423599e-01 -1.78822240807458e-03 5.98730950561293e-02
1122 9.04390983012181e-01 -1.78496425741874e-03 5.98731922781713e-02
1123 9.04210422260712e-01 -1.78161545468082e-03 5.98732920200473e-02
1124 9.04029863232639e-01 -1.77817506096069e-03 5.98733942942921e-02
1125 9.03849305989173e-01 -1.77464232518132e-03 5.98734991074083e-02
1126 9.03668750592884e-01 -1.77101648602404e-03 5.98736064650274e-02
1127 9.03488197107739e-01 -1.76729677174763e-03 5.98737163725319e-02
1128 9.03307645599133e-01 -1.76348239999505e-03 5.98738288353321e-02
1129 9.03127096133930e-01 -1.75957257758930e-03 5.98739438588667e-02
1130 9.02946548780498e-01 -1.75556650031471e-03 5.98740614483085e-02
1131 9.02766003608750e-01 -1.75146335268183e-03 5.98741816079232e-02
1132 9.02585460690183e-01 -1.74726230773119e-03 5.98743043418000e-02
1133 9.02404920097923e-01 -1.74296252681371e-03 5.98744296540324e-02
1134 9.02224381906762e-01 -1.73856315935972e-03 5.98745575487177e-02
1135 9.02043846193208e-01 -1.73406334264199e-03 5.98746880299562e-02
1136 9.01863313035529e-01 -1.72946220153280e-03 5.98748211018514e-02
1137 9.01682782513799e-01 -1.72475884825474e-03 5.98749567685088e-02
1138 9.01502254709945e-01 -1.71995238212500e-03 5.98750950340362e-02
1139 9.01321729707802e-01 -1.71504188928936e-03 5.98752359023316e-02
1140 9.01141207593162e-01 -1.71002644239242e-03 5.98753793736973e-02
1141 9.00960688453824e-01 -1.70490510031058e-03 5.98755254453532e-02
1142 9.00780172379653e-01 -1.69967690791974e-03 5.98756741143014e-02
1143 9.00599659462641e-01 -1.69434089580590e-03 5.98758253774142e-02
1144 9.00419149796956e-01 -1.68889607996616e-03 5.98759792314309e-02
1145 9.00238643479012e-01 -1.68334146150186e-03 5.98761356729537e-02
1146 9.00058140607528e-01 -1.67767602630325e-03 5.98762946984444e-02
1147 8.99877641283594e-01 -1.67189874472576e-03 5.98764563042199e-02
1148 8.99697145610737e-01 -1.66600857125720e-03 5.98766204864487e-02
1149 8.99516653694990e-01 -1.66000444417601e-03 5.98767872411465e-02
1150 8.99336165644966e-01 -1.65388528519987e-03 5.98769565641724e-02
1151 8.99155681571931e-01 -1.64764999912459e-03 5.98771284512236e-02
1152 8.98975201589880e-01 -1.64129747345290e-03 5.98773028978318e-02
1153 8.98794725815620e-01 -1.63482657801272e-03 5.98774798993579e-02
1154 8.98614254368845e-01 -1.62823616456460e-03 5.98776594509876e-02
1155 8.98433787372229e-01 -1.62152506639799e-03 5.98778415477260e-02
1156 8.98253324951509e-01 -1.61469209791585e-03 5.98780261843928e-02
1157 8.98072867235578e-01 -1.60773605420601e-03 5.98782133555244e-02
1158 8.97892414356577e-01 -1.60065571052042e-03 5.98784030496950e-02
1159 8.97711966449989e-01 -1.59344982177364e-03 5.98785952460783e-02
1160 8.97531523640253e-01 -1.58611747749898e-03 5.98787899203618e-02
1161 8.97351086063044e-01 -1.57865754603873e-03 5.98789870597286e-02
1162 8.97170653901447e-01 -1.57106782422853e-03 5.98791866740641e-02
1163 8.96990227346865e-01 -1.56334602598840e-03 5.98793887731909e-02
1164 8.96809806598684e-01 -1.55548979761454e-03 5.98795933664551e-02
1165 8.96629391864694e-01 -1.54749671495327e-03 5.98798004632463e-02
1166 8.96448983361530e-01 -1.53936428042172e-03 5.98800100730147e-02
1167 8.96268581315154e-01 -1.53108991986448e-03 5.98802222052516e-02
1168 8.96088185961356e-01 -1.52267097922303e-03 5.98804368687622e-02
1169 8.95907797546292e-01 -1.51410472102635e-03 5.98806540713832e-02
1170 8.95727416327067e-01 -1.50538832070259e-03 5.98808738208659e-02
1171 8.95547042572345e-01 -1.49651886266237e-03 5.98810961249369e-02
1172 8.95366676563009e-01 -1.48749333615193e-03 5.98813209912911e-02
1173 8.95186318592864e-01 -1.47830863086071e-03 5.98815484275846e-02
1174 8.95005968969394e-01 -1.46896153226544e-03 5.98817784414264e-02
1175 8.94825628014566e-01 -1.45944871669123e-03 5.98820110403696e-02
1176 8.94645296065701e-01 -1.44976674606831e-03 5.98822462319023e-02
1177 8.94464973476403e-01 -1.43991206236421e-03 5.98824840231524e-02
1178 8.94284660617550e-01 -1.42988098170845e-03 5.98827244161738e-02
1179 8.94104357878370e-01 -1.41966968808330e-03 5.98829674084382e-02
1180 8.93924065667611e-01 -1.40927422656896e-03 5.98832129967412e-02
1181 8.93743784414786e-01 -1.39869049618410e-03 5.98834611772927e-02
1182 8.93563514571527e-01 -1.38791424224764e-03 5.98837119456758e-02
1183 8.93383256613035e-01 -1.37694104822070e-03 5.98839652968010e-02
1184 8.93203011039659e-01 -1.36576632698487e-03 5.98842212248583e-02
1185 8.93022778378599e-01 -1.35438531150841e-03 5.98844797232639e-02
1186 8.92842559185757e-01 -1.34279304484758e-03 5.98847407846040e-02
1187 8.92662354047739e-01 -1.33098436942391e-03 5.98850044005724e-02
1188 8.92482163584036e-01 -1.31895391551293e-03 5.98852705619044e-02
1189 8.92301988449396e-01 -1.30669608887215e-03 5.98855392583040e-02
1190 8.92121829336404e-01 -1.29420505742862e-03 5.98858104783647e-02
1191 8.91941686978302e-01 -1.28147473693759e-03 5.98860842094846e-02
1192 8.91761562152069e-01 -1.26849877551331e-03 5.98863604377724e-02
1193 8.91581455681783e-01 -1.25527053692229e-03 5.98866391479459e-02
1194 8.91401368442317e-01 -1.24178308251596e-03 5.98869203232206e-02
1195 8.91221301363359e-01 -1.22802915180186e-03 5.98872039369711e-02
1196 8.91041255433854e-01 -1.21400114132260e-03 5.98874899474838e-02
1197 8.90861231732583e-01 -1.19969076098528e-03 5.98877783275040e-02
1198 8.90681232097284e-01 -1.18508087549116e-03 5.98880692146448e-02
1199 8.90501258285718e-01 -1.17015631547851e-03 5.98883626839284e-02
1200 8.90321311881278e-01 -1.15490493335324e-03 5.98886587346512e-02
1201 8.90141394607512e-01 -1.13931373625002e-03 5.98889573642899e-02
1202 8.89961508340461e-01 -1.12336885138212e-03 5.98892585685493e-02
1203 8.89781655126569e-01 -1.10705544060298e-03 5.98895623411962e-02
1204 8.89601837203263e-01 -1.09035760403116e-03 5.98898686737640e-02
1205 8.89422057022664e-01 -1.07325827113111e-03 5.98901775519911e-02
1206 8.89242317279027e-01 -1.05573907701787e-03 5.98904889517998e-02
1207 8.89062620940736e-01 -1.03778022103546e-03 5.98908028440416e-02
1208 8.88882971287441e-01 -1.01936030516912e-03 5.98911191946095e-02
1209 8.88703371954001e-01 -1.00045614846916e-03 5.98914379637159e-02
1210 8.88523826981896e-01 -9.81042572865779e-04 5.98917591050460e-02
1211 8.88344340880363e-01 -9.61092154878971e-04 5.98920825647593e-02
1212 8.88164918699235e-01 -9.40574936336680e-04 5.98924082803067e-02
1213 8.87985566116283e-01 -9.19458085550865e-04 5.98927361790062e-02
1214 8.87806289542610e-01 -8.97705498490490e-04 5.98930661710192e-02
1215 8.87627096250656e-01 -8.75277326252646e-04 5.98933981383826e-02
1216 8.87447995368103e-01 -8.52123022451744e-04 5.98937320370451e-02
1217 8.87269004919621e-01 -8.28130322961280e-04 5.98940685792968e-02
1218 8.87090140599676e-01 -8.03215036366191e-04 5.98944078911693e-02
1219 8.86911419033754e-01 -7.77295902370197e-04 5.98947498748015e-02
1220 8.86732860159928e-01 -7.50279104054725e-04 5.98950943974094e-02
1221 8.86554488147837e-01 -7.22055392978049e-04 5.98954412891291e-02
1222 8.86376332654775e-01 -6.92496315322594e-04 5.98957903320478e-02
1223 8.86198430577375e-01 -6.61449171567699e-04 5.98961412419208e-02
1224 8.86020828550386e-01 -6.28730152628741e-04 5.98964936311950e-02
1225 8.85843586606877e-01 -5.94114779146952e-04 5.98968469838793e-02
1226 8.85666801709235e-01 -5.57238934595039e-04 5.98972014002684e-02
1227 8.85490623767199e-01 -5.17568013769714e-04 5.98975573271424e-02
1228 8.85315281000696e-01 -4.74363206014009e-04 5.98979127104913e-02
1229 8.85141394591895e-01 -4.25655882901239e-04 5.98982413250370e-02
1230 8.84970263302099e-01 -3.68068069613493e-04 5.98984857981040e-02
1231 8.84804199440619e-01 -2.97270386370238e-04 5.98985615003775e-02
1232 8.84646870824146e-01 -2.08842560039302e-04 5.98983622913372e-02
1233 8.54838758301289e-01 -6.74622518248382e-04 5.98959943188100e-02
1234 8.54838758301289e-01 -6.72366350570358e-04 5.98960196880533e-02
1235 8.54838758301289e-01 -6.70110181938325e-04 5.98960449723111e-02
1236 8.54838758301289e-01 -6.67854012355483e-04 5.98960701715833e-02
1237 8.54838758301289e-01 -6.65597841825033e-04 5.98960952858699e-02
1238 8.54838758301289e-01 -6.63341670350177e-04 5.98961203151709e-02
1239 8.54838758301289e-01 -6.61085497934115e-04 5.98961452594862e-02
1240 8.54838758301289e-01 -6.58829324580050e-04 5.98961701188158e-02
1241 8.54838758301289e-01 -6.56573150291182e-04 5.98961948931597e-02
1242 8.54838758301289e-01 -6.54316975070713e-04 5.98962195825178e-02
1243 8.54838758301289e-01 -6.52060798921844e-04 5.98962441868900e-02
1244 8.54838758301289e-01 -6.49804621847776e-04 5.98962687062765e-02
1245 8.54838758301289e-01 -6.47548443851710e-04 5.98962931406770e-02
1246 8.54838758301289e-01 -6.45292264936848e-04 5.98963174900917e-02
1247 8.54838758301289e-01 -6.43036085106390e-04 5.98963417545204e-02
1248 8.54838758301289e-01 -6.40779904363539e-04 5.98963659339631e-02
1249 8.54838758301289e-01 -6.38523722711496e-04 5.98963900284198e-02
1250 8.54838758301289e-01 -6.36267540153461e-04 5.98964140378904e-02
1251 8.54838758301289e-01 -6.34011356692635e-04 5.98964379623750e-02
1252 8.54838758301289e-01 -6.31755172332221e-04 5.98964618018734e-02
1253 8.54838758301289e-01 -6.29498987075420e-04 5.98964855563857e-02
1254 8.54838758301289e-01 -6.27242800925432e-04 5.98965092259118e-02
1255 8.54838758301289e-01 -6.24986613885459e-04 5.98965328104517e-02
1256 8.54838758301289e-01 -6.22730425958703e-04 5.98965563100053e-02
1257 8.54838758301289e-01 -6.20474237148364e-04 5.98965797245726e-02
1258 8.54838758301289e-01 -6.18218047457644e-04 5.98966030541536e-02
1259 8.54838758301289e-01 -6.15961856889744e-04 5.98966262987483e-02
1260 8.54838758301289e-01 -6.13705665447865e-04 5.98966494583566e-02
1261 8.54838758301289e-01 -6.11449473135209e-04 5.98966725329784e-02
1262 8.54838758301289e-01 -6.09193279954977e-04 5.98966955226138e-02
1263 8.54838758301289e-01 -6.06937085910370e-04 5.98967184272627e-02
1264 8.54838758301289e-01 -6.04680891004589e-04 5.98967412469251e-02
1265 8.54838758301289e-01 -6.02424695240836e-04 5.98967639816010e-02
1266 8.54838758301289e-01 -6.00168498622312e-04 5.98967866312902e-02
1267 8.54838758301289e-01 -5.97912301152219e-04 5.98968091959929e-02
1268 8.54838758301289e-01 -5.95656102833757e-04 5.98968316757089e-02
1269 8.54838758301289e-01 -5.93399903670128e-04 5.98968540704382e-02
1270 8.54838758301289e-01 -5.91143703664533e-04 5.98968763801809e-02
1271 8.54838758301289e-01 -5.88887502820173e-04 5.98968986049367e-02
1272 8.54838758301289e-01 -5.86631301140251e-04 5.98969207447058e-02
1273 8.54838758301289e-01 -5.84375098627966e-04 5.98969427994881e-02
1274 8.54838758301289e-01 -5.82118895286521e-04 5.98969647692836e-02
1275 8.54838758301289e-01 -5.79862691119116e-04 5.98969866540922e-02
1276 8.54838758301289e-01 -5.77606486128953e-04 5.98970084539139e-02
1277 8.54838758301289e-01 -5.75350280319233e-04 5.98970301687487e-02
1278 8.54838758301289e-01 -5.73094073693158e-04 5.98970517985965e-02
1279 8.54838758301289e-01 -5.70837866253928e-04 5.98970733434573e-02
1280 8.54838758301289e-01 -5.68581658004746e-04 5.98970948033311e-02
1281 8.54838758301289e-01 -5.66325448948812e-04 5.98971161782178e-02
1282 8.54838758301289e-01 -5.64069239089327e-04 5.98971374681175e-02
1283 8.54838758301289e-01 -5.61813028429494e-04 5.98971586730300e-02
1284 8.54838758301289e-01 -5.59556816972513e-04 5.98971797929554e-02
1285 8.54838758301289e-01 -5.57300604721585e-04 5.98972008278937e-02
1286 8.54838758301289e-01 -5.55044391679913e-04 5.98972217778447e-02
1287 8.54838758301289e-01 -5.52788177850696e-04 5.98972426428085e-02
1288 8.54838758301289e-01 -5.50531963237137e-04 5.98972634227850e-02
1289 8.54838758301289e-01 -5.48275747842437e-04 5.98972841177743e-02
1290 8.54838758301289e-01 -5.46019531669797e-04 5.98973047277762e-02
1291 8.54838758301289e-01 -5.43763314722418e-04 5.98973252527908e-02
1292 8.54838758301289e-01 -5.41507097003502e-04 5.98973456928180e-02
1293 8.54838758301289e-01 -5.39250878516250e-04 5.98973660478578e-02
1294 8.54838758301289e-01 -5.36994659263864e-04 5.98973863179102e-02
1295 8.54838758301289e-01 -5.34738439249544e-04 5.98974065029751e-02
1296 8.54838758301289e-01 -5.32482218476492e-04 5.98974266030524e-02
1297 8.54838758301289e-01 -5.30225996947910e-04 5.98974466181423e-02
1298 8.54838758301289e-01 -5.27969774666998e-04 5.98974665482447e-02
1299 8.54838758301289e-01 -5.25713551636958e-04 5.98974863933594e-02
1300 8.54838758301289e-01 -5.23457327860991e-04 5.98975061534865e-02
1301 8.54838758301289e-01 -5.21201103342299e-04 5.98975258286260e-02
1302 8.54838758301289e-01 -5.18944878084082e-04 5.98975454187779e-02
1303 8.54838758301289e-01 -5.16688652089543e-04 5.98975649239420e-02
1304 8.54838758301289e-01 -5.14432425361883e-04 5.98975843441185e-02
1305 8.54838758301289e-01 -5.12176197904302e-04 5.98976036793072e-02
1306 8.54838758301289e-01 -5.09919969720003e-04 5.98976229295081e-02
1307 8.54838758301289e-01 -5.07663740812186e-04 5.98976420947212e-02
1308 8.54838758301289e-01 -5.05407511184053e-04 5.98976611749465e-02
1309 8.54838758301289e-01 -5.03151280838805e-04 5.98976801701839e-02
1310 8.54838758301289e-01 -5.00895049779644e-04 5.98976990804334e-02
1311 8.54838758301289e-01 -4.98638818009770e-04 5.98977179056951e-02
1312 8.54838758301289e-01 -4.96382585532386e-04 5.98977366459688e-02
1313 8.54838758301289e-01 -4.94126352350692e-04 5.98977553012545e-02
1314 8.54838758301289e-01 -4.91870118467890e-04 5.98977738715523e-02
1315 8.54838758301289e-01 -4.89613883887181e-04 5.98977923568620e-02
1316 8.54838758301289e-01 -4.87357648611767e-04 5.98978107571837e-02
1317 8.54838758301289e-01 -4.85101412644849e-04 5.98978290725173e-02
1318 8.54838758301289e-01 -4.82845175989627e-04 5.98978473028628e-02
1319 8.54838758301289e-01 -4.80588938649305e-04 5.98978654482202e-02
1320 8.54838758301289e-01 -4.78332700627082e-04 5.98978835085895e-02
1321 8.54838758301289e-01 -4.76076461926160e-04 5.98979014839706e-02
1322 8.54838758301289e-01 -4.73820222549741e-04 5.98979193743635e-02
1323 8.54838758301289e-01 -4.71563982501026e-04 5.98979371797682e-02
1324 8.54838758301289e-01 -4.69307741783216e-04 5.98979549001846e-02
1325 8.54838758301289e-01 -4.67051500399512e-04 5.98979725356128e-02
1326 8.54838758301289e-01 -4.64795258353117e-04 5.98979900860527e-02
1327 8.54838758301289e-01 -4.62539015647231e-04 5.98980075515042e-02
1328 8.54838758301289e-01 -4.60282772285055e-04 5.98980249319674e-02
1329 8.54838758301289e-01 -4.58026528269792e-04 5.98980422274422e-02
1330 8.54838758301289e-01 -4.55770283604641e-04 5.98980594379286e-02
1331 8.54838758301289e-01 -4.53514038292806e-04 5.98980765634266e-02
1332 8.54838758301289e-01 -4.51257792337486e-04 5.98980936039362e-02
1333 8.54838758301289e-01 -4.49001545741884e-04 5.98981105594573e-02
1334 8.54838758301289e-01 -4.46745298509200e-04 5.98981274299899e-02
1335 8.54838758301289e-01 -4.44489050642637e-04 5.98981442155340e-02
1336 8.54838758301289e-01 -4.42232802145395e-04 5.98981609160895e-02
1337 8.54838758301289e-01 -4.39976553020676e-04 5.98981775316565e-02
1338 8.54838758301289e-01 -4.37720303271681e-04 5.98981940622349e-02
1339 8.54838758301289e-01 -4.35464052901611e-04 5.98982105078247e-02
1340 8.54838758301289e-01 -4.33207801913669e-04 5.98982268684258e-02
1341 8.54838758301289e-01 -4.30951550311054e-04 5.98982431440383e-02
1342 8.54838758301289e-01 -4.28695298096969e-04 5.98982593346621e-02
1343 8.54838758301289e-01 -4.26439045274615e-04 5.98982754402972e-02
1344 8.54838758301289e-01 -4.24182791847194e-04 5.98982914609436e-02
1345 8.54838758301289e-01 -4.21926537817906e-04 5.98983073966012e-02
1346 8.54838758301289e-01 -4.19670283189953e-04 5.98983232472701e-02
1347 8.54838758301289e-01 -4.17414027966536e-04 5.98983390129502e-02
1348 8.54838758301289e-01 -4.15157772150857e-04 5.98983546936414e-02
1349 8.54838758301289e-01 -4.12901515746118e-04 5.98983702893438e-02
1350 8.54838758301289e-01 -4.10645258755519e-04 5.98983858000573e-02
1351 8.54838758301289e-01 -4.08389001182261e-04 5.98984012257820e-02
1352 8.54838758301289e-01 -4.06132743029547e-04 5.98984165665178e-02
1353 8.54838758301289e-01 -4.03876484300578e-04 5.98984318222646e-02
1354 8.54838758301289e-01 -4.01620224998554e-04 5.98984469930225e-02
1355 8.54838758301289e-01 -3.99363965126678e-04 5.98984620787914e-02
1356 8.54838758301289e-01 -3.97107704688151e-04 5.98984770795713e-02
1357 8.54838758301289e-01 -3.94851443686173e-04 5.98984919953622e-02
1358 8.54838758301289e-01 -3.92595182123947e-04 5.98985068261641e-02
1359 8.54838758301289e-01 -3.90338920004674e-04 5.98985215719769e-02
1360 8.54838758301289e-01 -3.88082657331555e-04 5.98985362328006e-02
1361 8.54838758301289e-01 -3.85826394107792e-04 5.98985508086353e-02
1362 8.54838758301289e-01 -3.83570130336586e-04 5.98985652994808e-02
1363 8.54838758301289e-01 -3.81313866021138e-04 5.98985797053372e-02
1364 8.54838758301289e-01 -3.79057601164650e-04 5.98985940262044e-02
1365 8.54838758301289e-01 -3.76801335770322e-04 5.98986082620824e-02
1366 8.54838758301289e-01 -3.74545069841358e-04 5.98986224129713e-02
1367 8.54838758301289e-01 -3.72288803380957e-04 5.98986364788709e-02
1368 8.54838758301289e-01 -3.70032536392321e-04 5.98986504597813e-02
1369 8.54838758301289e-01 -3.67776268878652e-04 5.98986643557024e-02
1370 8.54838758301289e-01 -3.65520000843151e-04 5.98986781666343e-02
1371 8.54838758301289e-01 -3.63263732289020e-04 5.98986918925769e-02
1372 8.54838758301289e-01 -3.61007463219459e-04 5.98987055335301e-02
1373 8.54838758301289e-01 -3.58751193637670e-04 5.98987190894940e-02
1374 8.54838758301289e-01 -3.56494923546855e-04 5.98987325604685e-02
1375 8.54838758301289e-01 -3.54238652950215e-04 5.98987459464537e-02
1376 8.54838758301289e-01 -3.51982381850951e-04 5.98987592474495e-02
1377 8.54838758301289e-01 -3.49726110252265e-04 5.98987724634559e-02
1378 8.54838758301289e-01 -3.47469838157358e-04 5.98987855944728e-02
1379 8.54838758301289e-01 -3.45213565569431e-04 5.98987986405003e-02
1380 8.54838758301289e-01 -3.42957292491686e-04 5.98988116015383e-02
1381 8.54838758301289e-01 -3.40701018927325e-04 5.98988244775868e-02
1382 8.54838758301289e-01 -3.38444744879548e-04 5.98988372686458e-02
1383 8.54838758301289e-01 -3.36188470351557e-04 5.98988499747153e-02
1384 8.54838758301289e-01 -3.33932195346554e-04 5.98988625957953e-02
1385 8.54838758301289e-01 -3.31675919867739e-04 5.98988751318856e-02
1386 8.54838758301289e-01 -3.29419643918315e-04 5.98988875829865e-02
1387 8.54838758301289e-01 -3.27163367501482e-04 5.98988999490977e-02
1388 8.54838758301289e-01 -3.24907090620442e-04 5.98989122302193e-02
1389 8.54838758301289e-01 -3.22650813278397e-04 5.98989244263513e-02
1390 8.54838758301289e-01 -3.20394535478548e-04 5.98989365374936e-02
1391 8.54838758301289e-01 -3.18138257224095e-04 5.98989485636462e-02
1392 8.54838758301289e-01 -3.15881978518241e-04 5.98989605048092e-02
1393 8.54838758301289e-01 -3.13625699364188e-04 5.98989723609825e-02
1394 8.54838758301289e-01 -3.11369419765135e-04 5.98989841321661e-02
1395 8.54838758301289e-01 -3.09113139724286e-04 5.98989958183599e-02
1396 8.54838758301289e-01 -3.06856859244841e-04 5.98990074195640e-02
1397 8.54838758301289e-01 -3.04600578330001e-04 5.98990189357783e-02
1398 8.54838758301289e-01 -3.02344296982968e-04 5.98990303670029e-02
1399 8.54838758301289e-01 -3.00088015206944e-04 5.98990417132376e-02
1400 8.54838758301289e-01 -2.97831733005129e-04 5.98990529744825e-02
1401 8.54838758301289e-01 -2.95575450380726e-04 5.98990641507376e-02
1402 8.54838758301289e-01 -2.93319167336935e-04 5.98990752420029e-02
1403 8.54838758301289e-01 -2.91062883876959e-04 5.98990862482783e-02
1404 8.54838758301289e-01 -2.88806600003998e-04 5.98990971695638e-02
1405 8.54838758301289e-01 -2.86550315721253e-04 5.98991080058594e-02
1406 8.54838758301289e-01 -2.84294031031927e-04 5.98991187571651e-02
1407 8.54838758301289e-01 -2.82037745939220e-04 5.98991294234809e-02
1408 8.54838758301289e-01 -2.79781460446335e-04 5.98991400048067e-02
1409 8.54838758301289e-01 -2.77525174556472e-04 5.98991505011426e-02
1410 8.54838758301289e-01 -2.75268888272833e-04 5.98991609124886e-02
1411 8.54838758301289e-01 -2.73012601598619e-04 5.98991712388445e-02
1412 8.54838758301289e-01 -2.70756314537032e-04 5.98991814802105e-02
1413 8.54838758301289e-01 -2.68500027091273e-04 5.98991916365864e-02
1414 8.54838758301289e-01 -2.66243739264543e-04 5.98992017079723e-02
1415 8.54838758301289e-01 -2.63987451060044e-04 5.98992116943682e-02
1416 8.54838758301289e-01 -2.61731162480978e-04 5.98992215957740e-02
1417 8.54838758301289e-01 -2.59474873530545e-04 5.98992314121897e-02
1418 8.54838758301289e-01 -2.57218584211948e-04 5.98992411436154e-02
1419 8.54838758301289e-01 -2.54962294528387e-04 5.98992507900509e-02
1420 8.54838758301289e-01 -2.52706004483064e-04 5.98992603514964e-02
1421 8.54838758301289e-01 -2.50449714079181e-04 5.98992698279517e-02
1422 8.54838758301289e-01 -2.48193423319938e-04 5.98992792194169e-02
1423 8.54838758301289e-01 -2.45937132208538e-04 5.98992885258919e-02
1424 8.54838758301289e-01 -2.43680840748181e-04 5.98992977473768e-02
1425 8.54838758301289e-01 -2.41424548942069e-04 5.98993068838715e-02
1426 8.54838758301289e-01 -2.39168256793404e-04 5.98993159353760e-02
1427 8.54838758301289e-01 -2.36911964305387e-04 5.98993249018903e-02
1428 8.54838758301289e-01 -2.34655671481219e-04 5.98993337834144e-02
1429 8.54838758301289e-01 -2.32399378324101e-04 5.98993425799483e-02
1430 8.54838758301289e-01 -2.30143084837236e-04 5.98993512914919e-02
1431 8.54838758301289e-01 -2.27886791023825e-04 5.98993599180453e-02
1432 8.54838758301289e-01 -2.25630496887068e-04 5.98993684596083e-02
1433 8.54838758301289e-01 -2.23374202430168e-04 5.98993769161812e-02
1434 8.54838758301289e-01 -2.21117907656326e-04 5.98993852877637e-02
1435 8.54838758301289e-01 -2.18861612568743e-04 5.98993935743559e-02
1436 8.54838758301289e-01 -2.16605317170620e-04 5.98994017759579e-02
1437 8.54838758301289e-01 -2.14349021465160e-04 5.98994098925694e-02
1438 8.54838758301289e-01 -2.12092725455563e-04 5.98994179241907e-02
1439 8.54838758301289e-01 -2.09836429145032e-04 5.98994258708216e-02
1440 8.54838758301289e-01 -2.07580132536766e-04 5.98994337324622e-02
1441 8.54838758301289e-01 -2.05323835633969e-04 5.98994415091123e-02
1442 8.54838758301289e-01 -2.03067538439840e-04 5.98994492007721e-02
1443 8.54838758301289e-01 -2.00811240957582e-04 5.98994568074415e-02
1444 8.54838758301289e-01 -1.98554943190397e-04 5.98994643291205e-02
1445 8.54838758301289e-01 -1.96298645141484e-04 5.98994717658091e-02
1446 8.54838758301289e-01 -1.94042346814047e-04 5.98994791175073e-02
1447 8.54838758301289e-01 -1.91786048211286e-04 5.98994863842150e-02
1448 8.54838758301289e-01 -1.89529749336403e-04 5.98994935659323e-02
1449 8.54838758301289e-01 -1.87273450192599e-04 5.98995006626591e-02
1450 8.54838758301289e-01 -1.85017150783076e-04 5.98995076743955e-02
1451 8.54838758301289e-01 -1.82760851111034e-04 5.98995146011414e-02
1452 8.54838758301289e-01 -1.80504551179677e-04 5.98995214428968e-02
1453 8.54838758301289e-01 -1.78248250992204e-04 5.98995281996617e-02
1454 8.54838758301289e-01 -1.75991950551817e-04 5.98995348714361e-02
1455 8.54838758301289e-01 -1.73735649861719e-04 5.98995414582200e-02
1456 8.54838758301289e-01 -1.71479348925109e-04 5.98995479600134e-02
1457 8.54838758301289e-01 -1.69223047745190e-04 5.98995543768162e-02
1458 8.54838758301289e-01 -1.66966746325163e-04 5.98995607086285e-02
1459 8.54838758301289e-01 -1.64710444668230e-04 5.98995669554502e-02
1460 8.54838758301289e-01 -1.62454142777591e-04 5.98995731172814e-02
1461 8.54838758301289e-01 -1.60197840656449e-04 5.98995791941220e-02
1462 8.54838758301289e-01 -1.57941538308005e-04 5.98995851859721e-02
1463 8.54838758301289e-01 -1.55685235735460e-04 5.98995910928315e-02
1464 8.54838758301289e-01 -1.53428932942015e-04 5.98995969147004e-02
1465 8.54838758301289e-01 -1.51172629930873e-04 5.98996026515787e-02
1466 8.54838758301289e-01 -1.48916326705234e-04 5.98996083034663e-02
1467 8.54838758301289e-01 -1.46660023268300e-04 5.98996138703633e-02
1468 8.54838758301289e-01 -1.44403719623273e-04 5.98996193522697e-02
1469 8.54838758301289e-01 -1.42147415773353e-04 5.98996247491855e-02
1470 8.54838758301289e-01 -1.39891111721743e-04 5.98996300611106e-02
1471 8.54838758301289e-01 -1.37634807471643e-04 5.98996352880451e-02
1472 8.54838758301289e-01 -1.35378503026255e-04 5.98996404299890e-02
1473 8.54838758301289e-01 -1.33122198388781e-04 5.98996454869421e-02
1474 8.54838758301289e-01 -1.30865893562422e-04 5.98996504589046e-02
1475 8.54838758301289e-01 -1.28609588550380e-04 5.98996553458764e-02
1476 8.54838758301289e-01 -1.26353283355855e-04 5.98996601478576e-02
1477 8.54838758301289e-01 -1.24096977982050e-04 5.98996648648480e-02
1478 8.54838758301289e-01 -1.21840672432165e-04 5.98996694968477e-02
1479 8.54838758301289e-01 -1.19584366709402e-04 5.98996740438568e-02
1480 8.54838758301289e-01 -1.17328060816963e-04 5.98996785058751e-02
1481 8.54838758301289e-01 -1.15071754758049e-04 5.98996828829027e-02
1482 8.54838758301289e-01 -1.12815448535862e-04 5.98996871749396e-02
1483 8.54838758301289e-01 -1.10559142153603e-04 5.98996913819857e-02
1484 8.54838758301289e-01 -1.08302835614472e-04 5.98996955040411e-02
1485 8.54838758301289e-01 -1.06046528921673e-04 5.98996995411058e-02
1486 8.54838758301289e-01 -1.03790222078406e-04 5.98997034931797e-02
1487 8.54838758301289e-01 -1.01533915087873e-04 5.98997073602629e-02
1488 8.54838758301289e-01 -9.92776079532743e-05 5.98997111423553e-02
1489 8.54838758301289e-01 -9.70213006778126e-05 5.98997148394570e-02
1490 8.54838758301289e-01 -9.47649932646889e-05 5.98997184515679e-02
1491 8.54838758301289e-01 -9.25086857171045e-05 5.98997219786880e-02
1492 8.54838758301289e-01 -9.02523780382611e-05 5.98997254208173e-02
1493 8.54838758301289e-01 -8.79960702313600e-05 5.98997287779559e-02
1494 8.54838758301289e-01 -8.57397622996026e-05 5.98997320501036e-02
1495 8.54838758301289e-01 -8.34834542461904e-05 5.98997352372606e-02
1496 8.54838758301289e-01 -8.12271460743249e-05 5.98997383394267e-02
1497 8.54838758301289e-01 -7.89708377872074e-05 5.98997413566021e-02
1498 8.54838758301289e-01 -7.67145293880394e-05 5.98997442887867e-02
1499 8.54838758301289e-01 -7.44582208800224e-05 5.98997471359804e-02
1500 8.54838758301289e-01 -7.22019122663578e-05 5.98997498981833e-02
1501 8.54838758301289e-01 -6.99456035502470e-05 5.98997525753954e-02
1502 8.54838758301289e-01 -6.76892947348915e-05 5.98997551676167e-02
1503 8.54838758301289e-01 -6.54329858234927e-05 5.98997576748472e-02
1504 8.54838758301289e-01 -6.31766768192521e-05 5.98997600970868e-02
1505 8.54838758301289e-01 -6.09203677253710e-05 5.98997624343356e-02
1506 8.54838758301289e-01 -5.86640585450511e-05 5.98997646865936e-02
1507 8.54838758301289e-01 -5.64077492814936e-05 5.98997668538607e-02
1508 8.54838758301289e-01 -5.41514399379000e-05 5.98997689361370e-02
1509 8.54838758301289e-01 -5.18951305174718e-05 5.98997709334224e-02
1510 8.54838758301289e-01 -4.96388210234104e-05 5.98997728457170e-02
1511 8.54838758301289e-01 -4.73825114589172e-05 5.98997746730207e-02
1512 8.54838758301289e-01 -4.51262018271938e-05 5.98997764153336e-02
1513 8.54838758301289e-01 -4.28698921314415e-05 5.98997780726556e-02
1514 8.54838758301289e-01 -4.06135823748617e-05 5.98997796449868e-02
1515 8.54838758301289e-01 -3.83572725606560e-05 5.98997811323271e-02
1516 8.54838758301289e-01 -3.61009626920258e-05 5.98997825346766e-02
1517 8.54838758301289e-01 -3.38446527721724e-05 5.98997838520351e-02
1518 8.54838758301289e-01 -3.15883428042975e-05 5.98997850844028e-02
1519 8.54838758301289e-01 -2.93320327916023e-05 5.98997862317797e-02
1520 8.54838758301289e-01 -2.70757227372883e-05 5.98997872941656e-02
1521 8.54838758301289e-01 -2.48194126445570e-05 5.98997882715607e-02
1522 8.54838758301289e-01 -2.25631025166099e-05 5.98997891639650e-02
1523 8.54838758301289e-01 -2.03067923566483e-05 5.98997899713783e-02
1524 8.54838758301289e-01 -1.80504821678737e-05 5.98997906938008e-02
1525 8.54838758301289e-01 -1.57941719534876e-05 5.98997913312324e-02
1526 8.54838758301289e-01 -1.35378617166914e-05 5.98997918836731e-02
1527 8.54838758301289e-01 -1.12815514606865e-05 5.98997923511229e-02
1528 8.54838758301289e-01 -9.02524118867439e-06 5.98997927335819e-02
1529 8.54838758301289e-01 -6.76893090385652e-06 5.98997930310500e-02
1530 8.54838758301289e-01 -4.51262060943431e-06 5.98997932435272e-02
1531 8.54838758301289e-01 -2.25631030860922e-06 5.98997933710135e-02
1532 9.37947653333138e-01 5.98990579682964e-02 -2.96257066552247e-04
1533 9.38111254188270e-01 5.98994045137838e-02 -2.15846792001029e-04
1534 9.38253769012213e-01 5.98997041467360e-02 -1.03412354675006e-04
1535 9.38279175586265e-01 5.98997576976099e-02 6.54121060936931e-05
1536 9.38149842218280e-01 5.98994875985427e-02 1.91406415963455e-04
1537 9.37989077146170e-01 5.98991518570855e-02 2.77232364590485e-04
1538 9.37819854307908e-01 5.98987985284784e-02 3.45233002213314e-04
1539 9.37646821948923e-01 5.98984381602446e-02 4.02935409553905e-04
1540 9.37471542245962e-01 5.98980771623765e-02 4.53434925464345e-04
1541 9.37294865588016e-01 5.98977163725896e-02 4.98822944201177e-04
1542 9.37117247306861e-01 5.98973558532364e-02 5.40382060799483e-04
1543 9.36938952035292e-01 5.98969955973508e-02 5.78938159032441e-04
1544 9.36760131959917e-01 5.98966363489262e-02 6.14983797262566e-04
1545 9.36580879893134e-01 5.98962794039563e-02 6.48817907632125e-04
1546 9.36401282042064e-01 5.98959247956637e-02 6.80767223926442e-04
1547 9.36221401719021e-01 5.98955725113225e-02 7.11086887142370e-04
1548 9.36041286551290e-01 5.98952225236719e-02 7.39979540215830e-04
1549 9.35860973234967e-01 5.98948747967737e-02 7.67609250448045e-04
1550 9.35680490620906e-01 5.98945292877908e-02 7.94111030714735e-04
1551 9.35499861787430e-01 5.98941859518510e-02 8.19597544457017e-04
1552 9.35319105473966e-01 5.98938447439176e-02 8.44163948623611e-04
1553 9.35138236819668e-01 5.98935056501020e-02 8.67889335737270e-04
1554 9.34957266754001e-01 5.98931688526044e-02 8.90828558052701e-04
1555 9.34776205307652e-01 5.98928344384352e-02 9.13035164541568e-04
1556 9.34595061333458e-01 5.98925024562493e-02 9.34558369491322e-04
1557 9.34413842509992e-01 5.98921729444852e-02 9.55442140979831e-04
1558 9.34232555537298e-01 5.98918459323549e-02 9.75725949188373e-04
1559 9.34051206293763e-01 5.98915214355567e-02 9.95445383536928e-04
1560 9.33869799962953e-01 5.98911994616406e-02 1.01463266482110e-03
1561 9.33688341137091e-01 5.98908800144003e-02 1.03331707378448e-03
1562 9.33506833902155e-01 5.98905630945373e-02 1.05152531236392e-03
1563 9.33325281908330e-01 5.98902487001849e-02 1.06928180992848e-03
1564 9.33143688428735e-01 5.98899368273403e-02 1.08660898439517e-03
1565 9.32962056408667e-01 5.98896274702233e-02 1.10352746607652e-03
1566 9.32780388507133e-01 5.98893206215747e-02 1.12005629055071e-03
1567 9.32598687132075e-01 5.98890162728800e-02 1.13621306563064e-03
1568 9.32416954470406e-01 5.98887144120497e-02 1.15201411669405e-03
1569 9.32235192513726e-01 5.98884150217574e-02 1.16747461356406e-03
1570 9.32053403080408e-01 5.98881180842335e-02 1.18260868138158e-03
1571 9.31871587834708e-01 5.98878235835777e-02 1.19742949825801e-03
1572 9.31689748232931e-01 5.98875315219236e-02 1.21194849645566e-03
1573 9.31507885441859e-01 5.98872419442505e-02 1.22617414878253e-03
1574 9.31326000602518e-01 5.98869548786829e-02 1.24011513274837e-03
1575 9.31144094786224e-01 5.98866703499762e-02 1.25377974545585e-03
1576 9.30962168997154e-01 5.98863883807201e-02 1.26717589080737e-03
1577 9.30780224177613e-01 5.98861089909088e-02 1.28031110503589e-03
1578 9.30598261212832e-01 5.98858321965912e-02 1.29319258018686e-03
1579 9.30416280935284e-01 5.98855580117881e-02 1.30582718559396e-03
1580 9.30234284128621e-01 5.98852864491124e-02 1.31822148770603e-03
1581 9.30052271531258e-01 5.98850175198768e-02 1.33038176839589e-03
1582 9.29870243839642e-01 5.98847512341916e-02 1.34231404187411e-03
1583 9.29688201711235e-01 5.98844876010539e-02 1.35402407033519e-03
1584 9.29506145767244e-01 5.98842266284305e-02 1.36551737845006e-03
1585 9.29324076595118e-01 5.98839683232952e-02 1.37679926680746e-03
1586 9.29141994750851e-01 5.98837126881205e-02 1.38787482442902e-03
1587 9.28959900761088e-01 5.98834597182019e-02 1.39874894039891e-03
1588 9.28777795125051e-01 5.98832094078534e-02 1.40942631460513e-03
1589 9.28595678316318e-01 5.98829617511531e-02 1.41991146779612e-03
1590 9.28413550784465e-01 5.98827167419667e-02 1.43020875096783e-03
1591 9.28231412956586e-01 5.98824743739688e-02 1.44032235412922e-03
1592 9.28049265238690e-01 5.98822346406620e-02 1.45025631449549e-03
1593 9.27867108017003e-01 5.98819975353946e-02 1.46001452415411e-03
1594 9.27684941659160e-01 5.98817630513774e-02 1.46960073724436e-03
1595 9.27502766515326e-01 5.98815311816985e-02 1.47901857668758e-03
1596 9.27320582919224e-01 5.98813019193366e-02 1.48827154050195e-03
1597 9.27138391189097e-01 5.98810752571742e-02 1.49736300773261e-03
1598 9.26956191628597e-01 5.98808511880091e-02 1.50629624402549e-03
1599 9.26773984527619e-01 5.98806297045646e-02 1.51507440687038e-03
1600 9.26591770163072e-01 5.98804107995000e-02 1.52370055053712e-03
1601 9.26409548799602e-01 5.98801944654192e-02 1.53217763072640e-03
1602 9.26227320690264e-01 5.98799806948790e-02 1.54050850895507e-03
1603 9.26045086077152e-01 5.98797694803969e-02 1.54869595669428e-03
1604 9.25862845191984e-01 5.98795608144583e-02 1.55674265927717e-03
1605 9.25680598256662e-01 5.98793546854479e-02 1.56465121960604e-03
1606 9.25498345483788e-01 5.98791510731457e-02 1.57242416165586e-03
1607 9.25316087077128e-01 5.98789499652696e-02 1.58006393372068e-03
1608 9.25133823232071e-01 5.98787513499640e-02 1.58757291157227e-03
1609 9.24951554127150e-01 5.98785552208312e-02 1.59495317983941e-03
1610 9.24769279842342e-01 5.98783616325019e-02 1.60220445897897e-03
1611 9.24587000500540e-01 5.98781706094090e-02 1.60932755651868e-03
1612 9.24404716242475e-01 5.98779821612485e-02 1.61632378641252e-03
1613 9.24222427205292e-01 5.98777962974059e-02 1.62319444056033e-03
1614 9.24040133522660e-01 5.98776130269815e-02 1.62994078931892e-03
1615 9.23857835324875e-01 5.98774323583281e-02 1.63656408199635e-03
1616 9.23675532738963e-01 5.98772542982964e-02 1.64306554733071e-03
1617 9.23493225888771e-01 5.98770788533063e-02 1.64944639396129e-03
1618 9.23310914895067e-01 5.98769060295603e-02 1.65570781088331e-03
1619 9.23128599875628e-01 5.98767358330496e-02 1.66185096788881e-03
1620 9.22946280945324e-01 5.98765682695600e-02 1.66787701599505e-03
1621 9.22763958216207e-01 5.98764033446776e-02 1.67378708786068e-03
1622 9.22581631797590e-01 5.98762410637942e-02 1.67958229819027e-03
1623 9.22399301796126e-01 5.98760814321126e-02 1.68526374412746e-03
1624 9.22216968315883e-01 5.98759244533481e-02 1.69083250561275e-03
1625 9.22034631458421e-01 5.98757701260979e-02 1.69628964568693e-03
1626 9.21852291322858e-01 5.98756184477216e-02 1.70163621092522e-03
1627 9.21669948005943e-01 5.98754694155463e-02 1.70687323181140e-03
1628 9.21487601602118e-01 5.98753230268679e-02 1.71200172307966e-03
1629 9.21305252203585e-01 5.98751792789526e-02 1.71702268404740e-03
1630 9.21122899900365e-01 5.98750381690381e-02 1.72193709893895e-03
1631 9.20940544780361e-01 5.98748996943350e-02 1.72674593720068e-03
1632 9.20758186929414e-01 5.98747638520280e-02 1.73145015380781e-03
1633 9.20575826431361e-01 5.98746306392769e-02 1.73605068956304e-03
1634 9.20393463368086e-01 5.98745000532179e-02 1.74054847138736e-03
1635 9.20211097819578e-01 5.98743720909647e-02 1.74494441260331e-03
1636 9.20028729863975e-01 5.98742467496098e-02 1.74923941321087e-03
1637 9.19846359577620e-01 5.98741240262249e-02 1.75343436015619e-03
1638 9.19663987035105e-01 5.98740039178625e-02 1.75753012759347e-03
1639 9.19481612309317e-01 5.98738864215566e-02 1.76152757714019e-03
1640 9.19299235471485e-01 5.98737715343235e-02 1.76542755812574e-03
1641 9.19116856591223e-01 5.98736592531631e-02 1.76923090783390e-03
1642 9.18934475736571e-01 5.98735495750594e-02 1.77293845173919e-03
1643 9.18752092974036e-01 5.98734424953938e-02 1.77655100370243e-03
1644 9.18569708368634e-01 5.98733380022244e-02 1.78006936606969e-03
1645 9.18387321983927e-01 5.98732360818494e-02 1.78349433001364e-03
1646 9.18204933885033e-01 5.98731367217273e-02 1.78682682926406e-03
1647 9.18022544127610e-01 5.98730399243697e-02 1.79006737180131e-03
1648 9.17840152776592e-01 5.98729456734321e-02 1.79321702490995e-03
1649 9.17657759878383e-01 5.98728539803428e-02 1.79627584865312e-03
1650 9.17475365481721e-01 5.98727648523756e-02 1.79924405569639e-03
1651 9.17292969635014e-01 5.98726782967631e-02 1.80212185796655e-03
1652 9.17110572386342e-01 5.98725943206726e-02 1.80490946665425e-03
1653 9.16928173783463e-01 5.98725129305265e-02 1.80760709220062e-03
1654 9.16745773873810e-01 5.98724341319133e-02 1.81021494429826e-03
1655 9.16563372704496e-01 5.98723579303453e-02 1.81273323191288e-03
1656 9.16380970322316e-01 5.98722843313019e-02 1.81516216328745e-03
1657 9.16198566773748e-01 5.98722133402298e-02 1.81750194594537e-03
1658 9.16016162104959e-01 5.98721449625433e-02 1.81975278669357e-03
1659 9.15833756361802e-01 5.98720792036242e-02 1.82191489162560e-03
1660 9.15651349589821e-01 5.98720160688222e-02 1.82398846612473e-03
1661 9.15468941834253e-01 5.98719555634523e-02 1.82597371486689e-03
1662 9.15286533140030e-01 5.98718976912406e-02 1.82787084177788e-03
1663 9.15104123551782e-01 5.98718424518042e-02 1.82968004996192e-03
1664 9.14921713113835e-01 5.98717898440925e-02 1.83140154180630e-03
1665 9.14739301870219e-01 5.98717398670527e-02 1.83303551900409e-03
1666 9.14556889864665e-01 5.98716925196299e-02 1.83458218255713e-03
1667 9.14374477140613e-01 5.98716478007668e-02 1.83604173277890e-03
1668 9.14192063741208e-01 5.98716057094040e-02 1.83741436929767e-03
1669 9.14009649709302e-01 5.98715662444798e-02 1.83870029105927e-03
1670 9.13827235087463e-01 5.98715294049306e-02 1.83989969633014e-03
1671 9.13644819917967e-01 5.98714951896905e-02 1.84101278270017e-03
1672 9.13462404242811e-01 5.98714635976918e-02 1.84203974708567e-03
1673 9.13279988103704e-01 5.98714346278644e-02 1.84298078573220e-03
1674 9.13097571542078e-01 5.98714082791365e-02 1.84383609421749e-03
1675 9.12915154599084e-01 5.98713845504341e-02 1.84460586745431e-03
1676 9.12732737315597e-01 5.98713634406815e-02 1.84529029969327e-03
1677 9.12550319732217e-01 5.98713449488008e-02 1.84588958452569e-03
1678 9.12367901889269e-01 5.98713290737125e-02 1.84640391488643e-03
1679 9.12185483826810e-01 5.98713158143350e-02 1.84683348305666e-03
1680 9.12003065584628e-01 5.98713051690742e-02 1.84717848298284e-03
1681 9.11820647202281e-01 5.98712971283483e-02 1.84743913467965e-03
1682 9.11638228718968e-01 5.98712916853146e-02 1.84761559942783e-03
1683 9.11455810173626e-01 5.98712888369878e-02 1.84770796448800e-03
1684 9.11273391605066e-01 5.98712885823885e-02 1.84771625212832e-03
1685 9.11090973052097e-01 5.98712909225390e-02 1.84764041972317e-03
1686 9.10908554553645e-01 5.98712958604669e-02 1.84748035963249e-03
1687 9.10726136148870e-01 5.98713034012148e-02 1.84723589886122e-03
1688 9.10543717877295e-01 5.98713135518572e-02 1.84690679849601e-03
1689 9.10361299778926e-01 5.98713263215241e-02 1.84649275291506e-03
1690 9.10178881894008e-01 5.98713417153083e-02 1.84599351910619e-03
1691 9.09996464262502e-01 5.98713597292463e-02 1.84540905504223e-03
1692 9.09814046924883e-01 5.98713803660272e-02 1.84473919342514e-03
1693 9.09631629921878e-01 5.98714036285231e-02 1.84398376287481e-03
1694 9.09449213294456e-01 5.98714295196120e-02 1.84314259151287e-03
1695 9.09266797083834e-01 5.98714580421773e-02 1.84221550696096e-03
1696 9.09084381331473e-01 5.98714891991082e-02 1.84120233633896e-03
1697 9.08901966079086e-01 5.98715229932998e-02 1.84010290626327e-03
1698 9.08719551368632e-01 5.98715594276528e-02 1.83891704284502e-03
1699 9.08537137242322e-01 5.98715985049958e-02 1.83764457168602e-03
1700 9.08354723742622e-01 5.98716402253918e-02 1.83628531779776e-03
1701 9.08172310912250e-01 5.98716845854357e-02 1.83483910557896e-03
1702 9.07989898794183e-01 5.98717315814850e-02 1.83330575890886e-03
1703 9.07807487431647e-01 5.98717812098760e-02 1.83168510115167e-03
1704 9.07625076868136e-01 5.98718334669243e-02 1.82997695515491e-03
1705 9.07442667147399e-01 5.98718883489245e-02 1.82818114324757e-03
1706 9.07260258313450e-01 5.98719458521499e-02 1.82629748723822e-03
1707 9.07077850410567e-01 5.98720059728526e-02 1.82432580841330e-03
1708 9.06895443483289e-01 5.98720687072632e-02 1.82226592753519e-03
1709 9.06713037576426e-01 5.98721340515910e-02 1.82011766484044e-03
1710 9.06530632735054e-01 5.98722020020236e-02 1.81788084003791e-03
1711 9.06348229004519e-01 5.98722725547268e-02 1.81555527230692e-03
1712 9.06165826430441e-01 5.98723457058447e-02 1.81314078029543e-03
1713 9.05983425058711e-01 5.98724214514993e-02 1.81063718211811e-03
1714 9.05801024935495e-01 5.98724997877907e-02 1.80804429535454e-03
1715 9.05618626107236e-01 5.98725807107967e-02 1.80536193704733e-03
1716 9.05436228620656e-01 5.98726642165728e-02 1.80258992370019e-03
1717 9.05253832522755e-01 5.98727503011521e-02 1.79972807127612e-03
1718 9.05071437860816e-01 5.98728389597660e-02 1.79677619517349e-03
1719 9.04889044682406e-01 5.98729301806624e-02 1.79373411004997e-03
1720 9.04706653035375e-01 5.98730239485266e-02 1.79060162991704e-03
1721 9.04524262970377e-01 5.98731202570321e-02 1.78737842759504e-03
1722 9.04341874548762e-01 5.98732191215896e-02 1.78406361547941e-03
1723 9.04159487843944e-01 5.98733205697879e-02 1.78065572744341e-03
1724 9.03977102915999e-01 5.98734246046793e-02 1.77715411202569e-03
1725 9.03794719828425e-01 5.98735312323760e-02 1.77355799466889e-03
1726 9.03612338646137e-01 5.98736404590298e-02 1.76986659019354e-03
1727 9.03429959435511e-01 5.98737522908313e-02 1.76607910259435e-03
1728 9.03247582264416e-01 5.98738667336401e-02 1.76219472481963e-03
1729 9.03065207202259e-01 5.98739837923435e-02 1.75821263853692e-03
1730 9.02882834320018e-01 5.98741034716774e-02 1.75413201394000e-03
1731 9.02700463690290e-01 5.98742257763920e-02 1.74995200952948e-03
1732 9.02518095387327e-01 5.98743507112514e-02 1.74567177188241e-03
1733 9.02335729487087e-01 5.98744782810335e-02 1.74129043541607e-03
1734 9.02153366067272e-01 5.98746084905299e-02 1.73680712214569e-03
1735 9.01971005207383e-01 5.98747413445455e-02 1.73222094143606e-03
1736 9.01788646988759e-01 5.98748768478983e-02 1.72753098974663e-03
1737 9.01606291494635e-01 5.98750150052473e-02 1.72273635036692e-03
1738 9.01423938810188e-01 5.98751558177326e-02 1.71783609308594e-03
1739 9.01241589022588e-01 5.98752992831245e-02 1.71282927391975e-03
1740 9.01059242221062e-01 5.98754453989500e-02 1.70771493488679e-03
1741 9.00876898496939e-01 5.98755941626152e-02 1.70249210372015e-03
1742 9.00694557943719e-01 5.98757455714016e-02 1.69715979356976e-03
1743 9.00512220657127e-01 5.98758996224630e-02 1.69171700269658e-03
1744 9.00329886735177e-01 5.98760563128221e-02 1.68616271415856e-03
1745 9.00147556278235e-01 5.98762156393662e-02 1.68049589548808e-03
1746 8.99965229389089e-01 5.98763775988439e-02 1.67471549836058e-03
1747 8.99782906173016e-01 5.98765421878612e-02 1.66882045825413e-03
1748 8.99600586737850e-01 5.98767094028774e-02 1.66280969409954e-03
1749 8.99418271194062e-01 5.98768792402008e-02 1.65668210792080e-03
1750 8.99235959654828e-01 5.98770516959847e-02 1.65043658446548e-03
1751 8.99053652236117e-01 5.98772267662226e-02 1.64407199082468e-03
1752 8.98871349056762e-01 5.98774044467440e-02 1.63758717604232e-03
1753 8.98689050238555e-01 5.98775847332096e-02 1.63098097071323e-03
1754 8.98506755906325e-01 5.98777676211062e-02 1.62425218656979e-03
