600 600
1 3.82621795879202e-01 1.25350213061903e-11 -5.85361983487400e-02
2 3.67625347872191e-01 -7.12165042367132e-10 -5.82098492008012e-02
3 3.82621414526287e-01 7.86404347221651e-05 -5.85361407248218e-02
4 3.82620243356480e-01 1.57272870050010e-04 -5.85359602304589e-02
5 3.82618277665518e-01 2.35889073659810e-04 -5.85356568102320e-02
6 3.82615513030222e-01 3.14480662829354e-04 -5.85352304602555e-02
7 3.82611945319485e-01 3.93039125629577e-04 -5.85346812292880e-02
8 3.82607570704821e-01 4.71555830157340e-04 -5.85340092197455e-02
9 3.82602385670445e-01 5.50022034324968e-04 -5.85332145886108e-02
10 3.82596387022821e-01 6.28428896177956e-04 -5.85322975482332e-02
11 3.82589571899626e-01 7.06767484742977e-04 -5.85312583670100e-02
12 3.82581937778079e-01 7.85028791300012e-04 -5.85300973699471e-02
13 3.82573482482589e-01 8.63203741142266e-04 -5.85288149390904e-02
14 3.82564204191667e-01 9.41283205710033e-04 -5.85274115138247e-02
15 3.82554101444078e-01 1.01925801508538e-03 -5.85258875910366e-02
16 3.82543173144174e-01 1.09711897079649e-03 -5.85242437251365e-02
17 3.82531418566380e-01 1.17485685888259e-03 -5.85224805279395e-02
18 3.82518837358813e-01 1.25246246316760e-03 -5.85205986684006e-02
19 3.82505429545988e-01 1.32992657868860e-03 -5.85185988722062e-02
20 3.82491195530613e-01 1.40724002522325e-03 -5.85164819212194e-02
21 3.82476136094435e-01 1.48439366085914e-03 -5.85142486527822e-02
22 3.82460252398145e-01 1.56137839554685e-03 -5.85118999588741e-02
23 3.82443545980331e-01 1.63818520457849e-03 -5.85094367851322e-02
24 3.82426018755479e-01 1.71480514193329e-03 -5.85068601297334e-02
25 3.82407673011035e-01 1.79122935343263e-03 -5.85041710421461e-02
26 3.82388511403530e-01 1.86744908964783e-03 -5.85013706217537e-02
27 3.82368536953801e-01 1.94345571850579e-03 -5.84984600163575e-02
28 3.82347753041323e-01 2.01924073753957e-03 -5.84954404205655e-02
29 3.82326163397685e-01 2.09479578573340e-03 -5.84923130740733e-02
30 3.82303772099238e-01 2.17011265491472e-03 -5.84890792598454e-02
31 3.82280583558963e-01 2.24518330064904e-03 -5.84857403022063e-02
32 3.82256602517594e-01 2.31999985259687e-03 -5.84822975648479e-02
33 3.82231834034048e-01 2.39455462429638e-03 -5.84787524487646e-02
34 3.82206283475205e-01 2.46884012233884e-03 -5.84751063901239e-02
35 3.82179956505103e-01 2.54284905490899e-03 -5.84713608580827e-02
36 3.82152859073584e-01 2.61657433967401e-03 -5.84675173525585e-02
37 3.82124997404476e-01 2.69000911095634e-03 -5.84635774019679e-02
38 3.82096377983322e-01 2.76314672628983e-03 -5.84595425609355e-02
39 3.82067007544779e-01 2.83598077219690e-03 -5.84554144079908e-02
40 3.82036892661976e-01 2.90850488491800e-03 -5.84511942384911e-02
41 3.82006040267873e-01 2.98071295377226e-03 -5.84468828137564e-02
42 3.81974459632200e-01 3.05260012173291e-03 -5.84424824547793e-02
43 3.81942158452328e-01 3.12416104260678e-03 -5.84379954128390e-02
44 3.81909142619970e-01 3.19538968709535e-03 -5.84334237117735e-02
45 3.81875416279848e-01 3.26627928153826e-03 -5.84287691632333e-02
46 3.81840981871233e-01 3.33682224039859e-03 -5.84240333797997e-02
47 3.81805840153213e-01 3.40701009104614e-03 -5.84192177862034e-02
48 3.81769990214272e-01 3.47683338924132e-03 -5.84143236288392e-02
49 3.81733429496648e-01 3.54628164049566e-03 -5.84093519959045e-02
50 3.81696157694160e-01 3.61534541256587e-03 -5.84043051356075e-02
51 3.81658176431210e-01 3.68401618860850e-03 -5.83991855311820e-02
52 3.81619486477366e-01 3.75228483987169e-03 -5.83939951153104e-02
53 3.81580088933812e-01 3.82014230189104e-03 -5.83887358709690e-02
54 3.81539985236047e-01 3.88757958785837e-03 -5.83834098298231e-02
55 3.81499177155874e-01 3.95458780193689e-03 -5.83780190704870e-02
56 3.81457666802555e-01 4.02115815268286e-03 -5.83725657166365e-02
57 3.81415456623135e-01 4.08728196647768e-03 -5.83670519349801e-02
58 3.81372549401945e-01 4.15295070083712e-03 -5.83614799331015e-02
59 3.81328948250272e-01 4.21815595727371e-03 -5.83558520231292e-02
60 3.81284656614045e-01 4.28288949579587e-03 -5.83501705609182e-02
61 3.81239678306241e-01 4.34714324991718e-03 -5.83444376902090e-02
62 3.81194017469670e-01 4.41090933749267e-03 -5.83386555753789e-02
63 3.81147678570736e-01 4.47418007283247e-03 -5.83328264088762e-02
64 3.81100666393758e-01 4.53694797846311e-03 -5.83269524086106e-02
65 3.81052986034484e-01 4.59920579641742e-03 -5.83210358152711e-02
66 3.81004642892809e-01 4.66094649900343e-03 -5.83150788895835e-02
67 3.80955642664746e-01 4.72216329900573e-03 -5.83090839095172e-02
68 3.80905991333669e-01 4.78284965927605e-03 -5.83030531674527e-02
69 3.80855695160879e-01 4.84299930167357e-03 -5.82969889673217e-02
70 3.80804760675528e-01 4.90260621531955e-03 -5.82908936217317e-02
71 3.80753194663950e-01 4.96166466413525e-03 -5.82847694490850e-02
72 3.80701004158446e-01 5.02016919363658e-03 -5.82786187707055e-02
73 3.80648196425583e-01 5.07811463696373e-03 -5.82724439079833e-02
74 3.80594778954053e-01 5.13549612012884e-03 -5.82662471795495e-02
75 3.80540759442145e-01 5.19230906646985e-03 -5.82600308984903e-02
76 3.80486145784890e-01 5.24854920032108e-03 -5.82537973696099e-02
77 3.80430946047248e-01 5.30421253534795e-03 -5.82475488805151e-02
78 3.80375167102143e-01 5.35929391248477e-03 -5.82412868676612e-02
79 3.80318818050832e-01 5.41379058050296e-03 -5.82350131035420e-02
80 3.80261909056766e-01 5.46770117106657e-03 -5.82287299589855e-02
81 3.80204449574311e-01 5.52102382333681e-03 -5.82224397643281e-02
82 3.80146448388859e-01 5.57375617154611e-03 -5.82161448167973e-02
83 3.80087913653955e-01 5.62589533158420e-03 -5.82098473876452e-02
84 3.80028852925718e-01 5.67743788643775e-03 -5.82035497290822e-02
85 3.79969273194830e-01 5.72837987032896e-03 -5.81972540810578e-02
86 3.79909180916358e-01 5.77871675139899e-03 -5.81909626779342e-02
87 3.79848582037639e-01 5.82844341278096e-03 -5.81846777550961e-02
88 3.79787482024461e-01 5.87755413190292e-03 -5.81784015555406e-02
89 3.79725885885765e-01 5.92604255785530e-03 -5.81721363364884e-02
90 3.79663798197064e-01 5.97390168664913e-03 -5.81658843760605e-02
91 3.79601223122817e-01 6.02112383418120e-03 -5.81596479800626e-02
92 3.79538164437942e-01 6.06770060670993e-03 -5.81534294889212e-02
93 3.79474625548691e-01 6.11362286863199e-03 -5.81472312848164e-02
94 3.79410609513110e-01 6.15888070733338e-03 -5.81410557990587e-02
95 3.79346119061301e-01 6.20346339487084e-03 -5.81349055197575e-02
96 3.79281156758235e-01 6.24735956186283e-03 -5.81287830187026e-02
97 3.79215730455749e-01 6.29056548562325e-03 -5.81226914380672e-02
98 3.79149847966905e-01 6.33307732742043e-03 -5.81166333112360e-02
99 3.79083515390335e-01 6.37488855076538e-03 -5.81106108097099e-02
100 3.79016739077787e-01 6.41599289038905e-03 -5.81046261019745e-02
101 3.78949525626700e-01 6.45638436334546e-03 -5.80986813507761e-02
102 3.78881881872081e-01 6.49605727953460e-03 -5.80927787103843e-02
103 3.78813814877707e-01 6.53500625159411e-03 -5.80869203238520e-02
104 3.78745331926669e-01 6.57322620411183e-03 -5.80811083202843e-02
105 3.78676440511313e-01 6.61071238211490e-03 -5.80753448121277e-02
106 3.78607148322614e-01 6.64746035879493e-03 -5.80696318924895e-02
107 3.78537463239011e-01 6.68346604243344e-03 -5.80639716325001e-02
108 3.78467393314777e-01 6.71872568249608e-03 -5.80583660787275e-02
109 3.78396946767946e-01 6.75323587486927e-03 -5.80528172506552e-02
110 3.78326131967873e-01 6.78699356621829e-03 -5.80473271382340e-02
111 3.78254957422467e-01 6.81999605745079e-03 -5.80418976995155e-02
112 3.78183431765160e-01 6.85224100627558e-03 -5.80365308583794e-02
113 3.78111563741665e-01 6.88372642885185e-03 -5.80312285023593e-02
114 3.78039362196587e-01 6.91445070052947e-03 -5.80259924805783e-02
115 3.77966835657280e-01 6.94441158044692e-03 -5.80208246527126e-02
116 3.77893991750241e-01 6.97360466775821e-03 -5.80157267145783e-02
117 3.77820840808596e-01 7.00203228106321e-03 -5.80106996330413e-02
118 3.77747393074371e-01 7.02969701056028e-03 -5.80057443469546e-02
119 3.77673658342090e-01 7.05660078066801e-03 -5.80008618436351e-02
120 3.77599645998142e-01 7.08274485231626e-03 -5.79960531618650e-02
121 3.77525365058085e-01 7.10812982365763e-03 -5.79913193949559e-02
122 3.77450824202152e-01 7.13275562915521e-03 -5.79866616938991e-02
123 3.77376031809233e-01 7.15662153699970e-03 -5.79820812706225e-02
124 3.77300995989582e-01 7.17972614480756e-03 -5.79775794013782e-02
125 3.77225724616485e-01 7.20206737354892e-03 -5.79731574302805e-02
126 3.77150225357129e-01 7.22364245965017e-03 -5.79688167730166e-02
127 3.77074505702902e-01 7.24444794521140e-03 -5.79645589207522e-02
128 3.76998572999344e-01 7.26447966627362e-03 -5.79603854442547e-02
129 3.76922434475990e-01 7.28373273906449e-03 -5.79562979982569e-02
130 3.76846097276326e-01 7.30220154414510e-03 -5.79522983260848e-02
131 3.76769568488103e-01 7.31987970837297e-03 -5.79483882645764e-02
132 3.76692855174250e-01 7.33676008458981e-03 -5.79445697493155e-02
133 3.76615964404647e-01 7.35283472893464e-03 -5.79408448202101e-02
134 3.76538903675284e-01 7.36809681810381e-03 -5.79372154648671e-02
135 3.76461681797717e-01 7.38254540794771e-03 -5.79336828574715e-02
136 3.76384307060386e-01 7.39617666096848e-03 -5.79302480284789e-02
137 3.76306787826713e-01 7.40898673557914e-03 -5.79269119873961e-02
138 3.76229132595178e-01 7.42097214274876e-03 -5.79236757048708e-02
139 3.76151349987726e-01 7.43212975388953e-03 -5.79205401110656e-02
140 3.76073448737699e-01 7.44245680791309e-03 -5.79175060941179e-02
141 3.75995437677358e-01 7.45195091741603e-03 -5.79145744986927e-02
142 3.75917325725039e-01 7.46061007395924e-03 -5.79117461246350e-02
143 3.75839121872002e-01 7.46843265241120e-03 -5.79090217257283e-02
144 3.75760835169023e-01 7.47541741433051e-03 -5.79064020085657e-02
145 3.75682474712787e-01 7.48156351036901e-03 -5.79038876315386e-02
146 3.75604049632149e-01 7.48687048168257e-03 -5.79014792039467e-02
147 3.75525569074313e-01 7.49133826034293e-03 -5.78991772852350e-02
148 3.75447042191003e-01 7.49496716874998e-03 -5.78969823843586e-02
149 3.75368478124671e-01 7.49775791805002e-03 -5.78948949592792e-02
150 3.75289885994817e-01 7.49971160557181e-03 -5.78929154165944e-02
151 3.75211274884465e-01 7.50082971129794e-03 -5.78910441112990e-02
152 3.75132653826869e-01 7.50111408740773e-03 -5.78892813474191e-02
153 3.75054031826237e-01 7.50056170116601e-03 -5.78876279012117e-02
154 3.74975417904016e-01 7.49917419730360e-03 -5.78860835020117e-02
155 3.74896820895626e-01 7.49695903049551e-03 -5.78846470562784e-02
156 3.74818249430470e-01 7.49392287490783e-03 -5.78833175707335e-02
157 3.74739711968853e-01 7.49007164215065e-03 -5.78820941501225e-02
158 3.74661216837230e-01 7.48541049718411e-03 -5.78809759952198e-02
159 3.74582772262156e-01 7.47994387222198e-03 -5.78799624010773e-02
160 3.74504386403190e-01 7.47367547867273e-03 -5.78790527555145e-02
161 3.74426067385001e-01 7.46660831715473e-03 -5.78782465378458e-02
162 3.74347823328912e-01 7.45874468561881e-03 -5.78775433178454e-02
163 3.74269662384109e-01 7.45008618560673e-03 -5.78769427549460e-02
164 3.74191592758755e-01 7.44063372667005e-03 -5.78764445976711e-02
165 3.74113622751221e-01 7.43038752896926e-03 -5.78760486833007e-02
166 3.74035760781663e-01 7.41934712406849e-03 -5.78757549377688e-02
167 3.73958015424174e-01 7.40751135393713e-03 -5.78755633757954e-02
168 3.73880395439748e-01 7.39487836816515e-03 -5.78754741012509e-02
169 3.73802909810282e-01 7.38144561939594e-03 -5.78754873077585e-02
170 3.73725567773886e-01 7.36720985697682e-03 -5.78756032795327e-02
171 3.73648378843750e-01 7.35216720881079e-03 -5.78758223800791e-02
172 3.73571352086989e-01 7.33631680803148e-03 -5.78761444137997e-02
173 3.73494496488605e-01 7.31965857358612e-03 -5.78765686963097e-02
174 3.73417821239171e-01 7.30219177550241e-03 -5.78770945709353e-02
175 3.73341335526250e-01 7.28391605267535e-03 -5.78777213306871e-02
176 3.73265048520905e-01 7.26483141645004e-03 -5.78784482185748e-02
177 3.73188969364080e-01 7.24493825330167e-03 -5.78792744280503e-02
178 3.73113107152877e-01 7.22423732658996e-03 -5.78801991035806e-02
179 3.73037470926826e-01 7.20272977737056e-03 -5.78812213413478e-02
180 3.72962069654169e-01 7.18041712425158e-03 -5.78823401900766e-02
181 3.72886912218250e-01 7.15730126228911e-03 -5.78835546519858e-02
182 3.72812007404048e-01 7.13338446092148e-03 -5.78848636838615e-02
183 3.72737363884921e-01 7.10866936094775e-03 -5.78862661982472e-02
184 3.72662990209628e-01 7.08315897056203e-03 -5.78877610647481e-02
185 3.72588894789667e-01 7.05685666046084e-03 -5.78893471114422e-02
186 3.72515085886997e-01 7.02976615804631e-03 -5.78910231263937e-02
187 3.72441571602196e-01 7.00189154075376e-03 -5.78927878592623e-02
188 3.72368359863096e-01 6.97323722853689e-03 -5.78946400230001e-02
189 3.72295458413948e-01 6.94380797554908e-03 -5.78965782956302e-02
190 3.72222874807491e-01 6.91360884688476e-03 -5.78986011940466e-02
191 3.72150616403601e-01 6.88264515387170e-03 -5.79007065520851e-02
192 3.72078690342990e-01 6.85092254657785e-03 -5.79028924413780e-02
193 3.72007103544126e-01 6.81844697633916e-03 -5.79051569703438e-02
194 3.71935862696794e-01 6.78522467725412e-03 -5.79074982262155e-02
195 3.71864974255193e-01 6.75126215411347e-03 -5.79099142775791e-02
196 3.71794444431745e-01 6.71656616989217e-03 -5.79124031769159e-02
197 3.71724279191652e-01 6.68114373286392e-03 -5.79149629631373e-02
198 3.71654484248193e-01 6.64500208339894e-03 -5.79175916641029e-02
199 3.71585065045715e-01 6.60814870404427e-03 -5.79202872883231e-02
200 3.71516026320353e-01 6.57059207469331e-03 -5.79230474305696e-02
201 3.71447373282243e-01 6.53233951391496e-03 -5.79258699684415e-02
202 3.71379111963796e-01 6.49339667334861e-03 -5.79287531137726e-02
203 3.71311249009699e-01 6.45376803918005e-03 -5.79316951828547e-02
204 3.71243791724033e-01 6.41345696196840e-03 -5.79346945886308e-02
205 3.71176748121555e-01 6.37246567945103e-03 -5.79377498334773e-02
206 3.71110126983868e-01 6.33079533265795e-03 -5.79408595024943e-02
207 3.71043937921318e-01 6.28844597559087e-03 -5.79440222572284e-02
208 3.70978191441505e-01 6.24541657865362e-03 -5.79472368297582e-02
209 3.70912897866057e-01 6.20170674898305e-03 -5.79505020396749e-02
210 3.70848064656287e-01 6.15732059335905e-03 -5.79538164935415e-02
211 3.70783700493449e-01 6.11226048934255e-03 -5.79571784379573e-02
212 3.70719814055779e-01 6.06652897037104e-03 -5.79605860744528e-02
213 3.70656413888666e-01 6.02012890166049e-03 -5.79640375712490e-02
214 3.70593508391206e-01 5.97306347925212e-03 -5.79675310650638e-02
215 3.70531105802911e-01 5.92533622821229e-03 -5.79710646630188e-02
216 3.70469214190631e-01 5.87695099998312e-03 -5.79746364446419e-02
217 3.70407841435748e-01 5.82791196888420e-03 -5.79782444639578e-02
218 3.70346995221705e-01 5.77822362777103e-03 -5.79818867516604e-02
219 3.70286683021910e-01 5.72789078286070e-03 -5.79855613173581e-02
220 3.70226912088093e-01 5.67691854774081e-03 -5.79892661518845e-02
221 3.70167689439146e-01 5.62531233658252e-03 -5.79929992296658e-02
222 3.70109021850508e-01 5.57307785658358e-03 -5.79967585111354e-02
223 3.70050915844140e-01 5.52022109967191e-03 -5.80005419451855e-02
224 3.69993377679132e-01 5.46674833350495e-03 -5.80043474716484e-02
225 3.69936413342978e-01 5.41266609180392e-03 -5.80081730237944e-02
226 3.69880028543563e-01 5.35798116406629e-03 -5.80120165308388e-02
227 3.69824228701842e-01 5.30270058464945e-03 -5.80158759191116e-02
228 3.69769018935295e-01 5.24683160991555e-03 -5.80197488062270e-02
229 3.69714404055553e-01 5.19038171584246e-03 -5.80236326910166e-02
230 3.69660388574428e-01 5.13335859389141e-03 -5.80275252307246e-02
231 3.69606976696154e-01 5.07577013164491e-03 -5.80314240928777e-02
232 3.69554172314151e-01 5.01762439992483e-03 -5.80353269579204e-02
233 3.69501979008594e-01 4.95892963965939e-03 -5.80392315217838e-02
234 3.69450400044835e-01 4.89969424859649e-03 -5.80431354983780e-02
235 3.69399438372557e-01 4.83992676782110e-03 -5.80470366220052e-02
236 3.69349096625783e-01 4.77963586826548e-03 -5.80509326496782e-02
237 3.69299375720645e-01 4.71883149032094e-03 -5.80548215430310e-02
238 3.69250278824782e-01 4.65752156491918e-03 -5.80587011579805e-02
239 3.69201812231489e-01 4.59571139546677e-03 -5.80625685029688e-02
240 3.69153973087185e-01 4.53341338329734e-03 -5.80664207879973e-02
241 3.69106749311974e-01 4.47064652079578e-03 -5.80702555713317e-02
242 3.69060126466230e-01 4.40743077086791e-03 -5.80740700641575e-02
243 3.69014109032091e-01 4.34377161331904e-03 -5.80778618556211e-02
244 3.68968706797381e-01 4.27967082884482e-03 -5.80816296020789e-02
245 3.68923929518777e-01 4.21513046365364e-03 -5.80853719438317e-02
246 3.68879786909795e-01 4.15015283388003e-03 -5.80890875042274e-02
247 3.68836288623502e-01 4.08474053190206e-03 -5.80927748726736e-02
248 3.68793444232482e-01 4.01889643277580e-03 -5.80964325749367e-02
249 3.68751263222971e-01 3.95262369440728e-03 -5.81000591142717e-02
250 3.68709754981816e-01 3.88592576009913e-03 -5.81036529807914e-02
251 3.68668928781455e-01 3.81880636114417e-03 -5.81072126529529e-02
252 3.68628793764623e-01 3.75126951874864e-03 -5.81107365991250e-02
253 3.68589358928843e-01 3.68331954524835e-03 -5.81142232792330e-02
254 3.68550633110743e-01 3.61496104458362e-03 -5.81176711464776e-02
255 3.68512624970278e-01 3.54619891200314e-03 -5.81210786491241e-02
256 3.68475342974894e-01 3.47703833296168e-03 -5.81244442323575e-02
257 3.68438795383722e-01 3.40748478120653e-03 -5.81277663401968e-02
258 3.68402990231854e-01 3.33754401600858e-03 -5.81310434174640e-02
259 3.68367935314784e-01 3.26722207854164e-03 -5.81342739118010e-02
260 3.68333638173065e-01 3.19652528739318e-03 -5.81374562757265e-02
261 3.68300106077288e-01 3.12546023320317e-03 -5.81405889687269e-02
262 3.68267346013419e-01 3.05403377243221e-03 -5.81436704593712e-02
263 3.68235364668601e-01 2.98225302026617e-03 -5.81466992274439e-02
264 3.68204168417469e-01 2.91012534266988e-03 -5.81496737660846e-02
265 3.68173763308937e-01 2.83765834763489e-03 -5.81525925832412e-02
266 3.68144155048687e-01 2.76485987655338e-03 -5.81554541757841e-02
267 3.68115348986388e-01 2.69173799376185e-03 -5.81582570216272e-02
268 3.68087350111906e-01 2.61830097389448e-03 -5.81609996174655e-02
269 3.68060163045834e-01 2.54455729003214e-03 -5.81636804835798e-02
270 3.68033792030423e-01 2.47051560131490e-03 -5.81662981659076e-02
271 3.68008240921447e-01 2.39618473996083e-03 -5.81688512380590e-02
272 3.67983513181076e-01 2.32157369774730e-03 -5.81713383032673e-02
273 3.67959611871779e-01 2.24669161201468e-03 -5.81737579962660e-02
274 3.67936539651280e-01 2.17154775125600e-03 -5.81761089850841e-02
275 3.67914298768614e-01 2.09615150035892e-03 -5.81783899727517e-02
276 3.67892891061278e-01 2.02051234556844e-03 -5.81805996989087e-02
277 3.67872317953499e-01 1.94463985924054e-03 -5.81827369413103e-02
278 3.67852580455615e-01 1.86854368445775e-03 -5.81848005172226e-02
279 3.67833679164573e-01 1.79223351957803e-03 -5.81867892847045e-02
280 3.67815614265522e-01 1.71571910278781e-03 -5.81887021437706e-02
281 3.67798385534489e-01 1.63901019672930e-03 -5.81905380374320e-02
282 3.67781992342108e-01 1.56211657327024e-03 -5.81922959526117e-02
283 3.67766433658380e-01 1.48504799848212e-03 -5.81939749209337e-02
284 3.67751708054266e-01 1.40781421782018e-03 -5.81955739778233e-02
285 3.67737813708961e-01 1.33042494152554e-03 -5.81970921593074e-02
286 3.67724748426069e-01 1.25288983068140e-03 -5.81985285829810e-02
287 3.67712509638341e-01 1.17521848367479e-03 -5.81998824136634e-02
288 3.67701094416842e-01 1.09742042315911e-03 -5.82011528633921e-02
289 3.67690499480850e-01 1.01950508351738e-03 -5.82023391915054e-02
290 3.67680721208450e-01 9.41481799038089e-04 -5.82034407046032e-02
291 3.67671755647676e-01 8.63359792401219e-04 -5.82044567563962e-02
292 3.67663598528227e-01 7.85148164082903e-04 -5.82053867474397e-02
293 3.67656245273590e-01 7.06855882261836e-04 -5.82062301238659e-02
294 3.67649691012896e-01 6.28491773352542e-04 -5.82069863625616e-02
295 3.67643930594473e-01 5.50064513309460e-04 -5.82076549732985e-02
296 3.67638958599919e-01 4.71582619698449e-04 -5.82082355105936e-02
297 3.67634769357501e-01 3.93054444408281e-04 -5.82087275733878e-02
298 3.67631356955655e-01 3.14488167049929e-04 -5.82091308036877e-02
299 3.67628715256547e-01 2.35891789035264e-04 -5.82094448823253e-02
300 3.67626837909899e-01 1.57273128360803e-04 -5.82096695302641e-02
301 3.67625718366674e-01 7.86398150521274e-05 -5.82098045068285e-02
302 3.67625717975286e-01 -7.86642596097275e-05 -5.82098048819693e-02
303 3.67626823536159e-01 -1.57320802414974e-04 -5.82096717317875e-02
304 3.67628671909397e-01 -2.35963189757384e-04 -5.82094498481595e-02
305 3.67631270300633e-01 -3.14584063904436e-04 -5.82091393664720e-02
306 3.67634625752731e-01 -3.93175862401042e-04 -5.82087404608150e-02
307 3.67638745131740e-01 -4.71730820889617e-04 -5.82082533451684e-02
308 3.67643635112666e-01 -5.50240976589085e-04 -5.82076782745480e-02
309 3.67649302165090e-01 -6.28698172455882e-04 -5.82070155461048e-02
310 3.67655752538704e-01 -7.07094062047436e-04 -5.82062655001694e-02
311 3.67662992248805e-01 -7.85420115105559e-04 -5.82054285212367e-02
312 3.67671027061809e-01 -8.63667623873734e-04 -5.82045050388807e-02
313 3.67679862480841e-01 -9.41827710158572e-04 -5.82034955285951e-02
314 3.67689503731473e-01 -1.01989133314158e-03 -5.82024005125508e-02
315 3.67699955747668e-01 -1.09784929794286e-03 -5.82012205602647e-02
316 3.67711223157998e-01 -1.17569226493371e-03 -5.81999562891714e-02
317 3.67723310272217e-01 -1.25341075978994e-03 -5.81986083650928e-02
318 3.67736221068246e-01 -1.33099518427252e-03 -5.81971775025981e-02
319 3.67749959179647e-01 -1.40843582771678e-03 -5.81956644652495e-02
320 3.67764527883667e-01 -1.48572287920557e-03 -5.81940700657269e-02
321 3.67779930089904e-01 -1.56284644039643e-03 -5.81923951658279e-02
322 3.67796168329688e-01 -1.63979653896697e-03 -5.81906406763384e-02
323 3.67813244746224e-01 -1.71656314263694e-03 -5.81888075567694e-02
324 3.67831161085579e-01 -1.79313617372043e-03 -5.81868968149589e-02
325 3.67849918688566e-01 -1.86950552415573e-03 -5.81849095065350e-02
326 3.67869518483585e-01 -1.94566107095601e-03 -5.81828467342399e-02
327 3.67889960980476e-01 -2.02159269201889e-03 -5.81807096471143e-02
328 3.67911246265433e-01 -2.09729028222895e-03 -5.81784994395427e-02
329 3.67933373997017e-01 -2.17274376978362e-03 -5.81762173501611e-02
330 3.67956343403309e-01 -2.24794313266928e-03 -5.81738646606287e-02
331 3.67980153280229e-01 -2.32287841521249e-03 -5.81714426942689e-02
332 3.68004801991045e-01 -2.39753974462874e-03 -5.81689528145817e-02
333 3.68030287467075e-01 -2.47191734749042e-03 -5.81663964236335e-02
334 3.68056607209614e-01 -2.54600156603484e-03 -5.81637749603318e-02
335 3.68083758293047e-01 -2.61978287423377e-03 -5.81610898985887e-02
336 3.68111737369174e-01 -2.69325189354660e-03 -5.81583427453836e-02
337 3.68140540672699e-01 -2.76639940828148e-03 -5.81555350387327e-02
338 3.68170164027882e-01 -2.83921638049081e-03 -5.81526683455731e-02
339 3.68200602856300e-01 -2.91169396433102e-03 -5.81497442595728e-02
340 3.68231852185683e-01 -2.98382351982034e-03 -5.81467643988758e-02
341 3.68263906659785e-01 -3.05559662593252e-03 -5.81437304037929e-02
342 3.68296760549226e-01 -3.12700509297000e-03 -5.81406439344481e-02
343 3.68330407763239e-01 -3.19804097416485e-03 -5.81375066683933e-02
344 3.68364841862279e-01 -3.26869657646235e-03 -5.81343202982004e-02
345 3.68400056071397e-01 -3.33896447044795e-03 -5.81310865290419e-02
346 3.68436043294328e-01 -3.40883749938488e-03 -5.81278070762725e-02
347 3.68472796128200e-01 -3.47830878733642e-03 -5.81244836630199e-02
348 3.68510306878798e-01 -3.54737174635349e-03 -5.81211180177963e-02
349 3.68548567576293e-01 -3.61602008271502e-03 -5.81177118721410e-02
350 3.68587569991359e-01 -3.68424780221491e-03 -5.81142669583014e-02
351 3.68627305651602e-01 -3.75204921449624e-03 -5.81107850069641e-02
352 3.68667765858208e-01 -3.81941893643933e-03 -5.81072677450412e-02
353 3.68708941702753e-01 -3.88635189461618e-03 -5.81037168935227e-02
354 3.68750824084069e-01 -3.95284332682961e-03 -5.81001341653985e-02
355 3.68793403725123e-01 -4.01888878276023e-03 -5.80965212636599e-02
356 3.68836671189815e-01 -4.08448412374950e-03 -5.80928798793821e-02
357 3.68880616899638e-01 -4.14962552175110e-03 -5.80892116898964e-02
358 3.68925231150140e-01 -4.21430945748667e-03 -5.80855183570530e-02
359 3.68970504127120e-01 -4.27853271784532e-03 -5.80818015255795e-02
360 3.69016425922509e-01 -4.34229239256894e-03 -5.80780628215368e-02
361 3.69062986549887e-01 -4.40558587026772e-03 -5.80743038508745e-02
362 3.69110175959588e-01 -4.46841083381181e-03 -5.80705261980876e-02
363 3.69157984053356e-01 -4.53076525514657e-03 -5.80667314249733e-02
364 3.69206400698515e-01 -4.59264738957942e-03 -5.80629210694905e-02
365 3.69255415741624e-01 -4.65405576958682e-03 -5.80590966447183e-02
366 3.69305019021592e-01 -4.71498919818967e-03 -5.80552596379149e-02
367 3.69355200382225e-01 -4.77544674194527e-03 -5.80514115096739e-02
368 3.69405949684203e-01 -4.83542772360278e-03 -5.80475536931769e-02
369 3.69457256648146e-01 -4.89493181326532e-03 -5.80436868741225e-02
370 3.69509110981401e-01 -4.95395895946534e-03 -5.80398114930927e-02
371 3.69561502627725e-01 -5.01250923854931e-03 -5.80359287655330e-02
372 3.69614421590884e-01 -5.07058295198324e-03 -5.80320398821040e-02
373 3.69667857943373e-01 -5.12818061808460e-03 -5.80281460069410e-02
374 3.69721801834862e-01 -5.18530296347731e-03 -5.80242482774169e-02
375 3.69776243500042e-01 -5.24195091449827e-03 -5.80203478039709e-02
376 3.69831173265884e-01 -5.29812558858884e-03 -5.80164456700016e-02
377 3.69886581558331e-01 -5.35382828570267e-03 -5.80125429318159e-02
378 3.69942458907317e-01 -5.40906048033819e-03 -5.80086406110269e-02
379 3.69998795950084e-01 -5.46382381434429e-03 -5.80047396791232e-02
380 3.70055586290176e-01 -5.51811711456393e-03 -5.80008415928288e-02
381 3.70112903401596e-01 -5.57185476795067e-03 -5.79969570780639e-02
382 3.70170849391626e-01 -5.62491571138636e-03 -5.79931019763151e-02
383 3.70229421487128e-01 -5.67728711127436e-03 -5.79892793662895e-02
384 3.70288608023497e-01 -5.72896563237223e-03 -5.79854911175112e-02
385 3.70348399783769e-01 -5.77994540583818e-03 -5.79817394736348e-02
386 3.70408787267360e-01 -5.83022098686902e-03 -5.79780266800053e-02
387 3.70469760711621e-01 -5.87978737462077e-03 -5.79743552030315e-02
388 3.70531310100280e-01 -5.92863998188113e-03 -5.79707270628458e-02
389 3.70593425188638e-01 -5.97677465457408e-03 -5.79671441232302e-02
390 3.70656095525645e-01 -6.02418768108643e-03 -5.79636082086688e-02
391 3.70719310474300e-01 -6.07087579372209e-03 -5.79601211022027e-02
392 3.70783059232191e-01 -6.11683616878044e-03 -5.79566845434430e-02
393 3.70847330852081e-01 -6.16206642528821e-03 -5.79533002267510e-02
394 3.70912114262440e-01 -6.20656462242236e-03 -5.79499697995869e-02
395 3.70977398287816e-01 -6.25032925567019e-03 -5.79466948610324e-02
396 3.71043171668964e-01 -6.29335925178014e-03 -5.79434769604877e-02
397 3.71109423082625e-01 -6.33565396256351e-03 -5.79403175965436e-02
398 3.71176141160897e-01 -6.37721315761306e-03 -5.79372182160284e-02
399 3.71243314510103e-01 -6.41803701600926e-03 -5.79341802132266e-02
400 3.71310931729090e-01 -6.45812611708933e-03 -5.79312049292679e-02
401 3.71378981426906e-01 -6.49748143035671e-03 -5.79282936516814e-02
402 3.71447452239793e-01 -6.53610430461148e-03 -5.79254476141108e-02
403 3.71516332847447e-01 -6.57399645638289e-03 -5.79226679961838e-02
404 3.71585611985869e-01 -6.61115994573394e-03 -5.79199556908679e-02
405 3.71655278464451e-01 -6.64759716347032e-03 -5.79173113557521e-02
406 3.71725321182956e-01 -6.68331083704945e-03 -5.79147357549821e-02
407 3.71795729141890e-01 -6.71830401048703e-03 -5.79122296046804e-02
408 3.71866491454673e-01 -6.75258003051917e-03 -5.79097935735958e-02
409 3.71937597358958e-01 -6.78614253254078e-03 -5.79074282838741e-02
410 3.72009036227072e-01 -6.81899542638999e-03 -5.79051343119125e-02
411 3.72080797575605e-01 -6.85114288204631e-03 -5.79029121892885e-02
412 3.72152871074148e-01 -6.88258931530634e-03 -5.79007624037561e-02
413 3.72225246553924e-01 -6.91333936669355e-03 -5.78986853248536e-02
414 3.72297912723914e-01 -6.94340095446153e-03 -5.78966808721168e-02
415 3.72370871549845e-01 -6.97275022761249e-03 -5.78947528937666e-02
416 3.72444123850269e-01 -7.00136441234708e-03 -5.78929053889116e-02
417 3.72517665123027e-01 -7.02923286334568e-03 -5.78911406314701e-02
418 3.72591489254923e-01 -7.05634849882282e-03 -5.78894604573418e-02
419 3.72665589898822e-01 -7.08270446003439e-03 -5.78878665862345e-02
420 3.72739960477410e-01 -7.10829413276961e-03 -5.78863607043137e-02
421 3.72814594188499e-01 -7.13311116190960e-03 -5.78849444763079e-02
422 3.72889484010878e-01 -7.15714946630327e-03 -5.78836195604475e-02
423 3.72964622700344e-01 -7.18040331512094e-03 -5.78823881476065e-02
424 3.73040002819924e-01 -7.20286720520737e-03 -5.78812517912699e-02
425 3.73115616744673e-01 -7.22453589504031e-03 -5.78802116155145e-02
426 3.73191456663002e-01 -7.24540446136265e-03 -5.78792687085309e-02
427 3.73267514586302e-01 -7.26546830954175e-03 -5.78784241208886e-02
428 3.73343782359183e-01 -7.28472318324725e-03 -5.78776788638735e-02
429 3.73420251670289e-01 -7.30316517339587e-03 -5.78770339079051e-02
430 3.73496914063646e-01 -7.32079072631434e-03 -5.78764901810413e-02
431 3.73573760950510e-01 -7.33759665107653e-03 -5.78760485675776e-02
432 3.73650783621658e-01 -7.35358012597443e-03 -5.78757099067482e-02
433 3.73727973260078e-01 -7.36873870408828e-03 -5.78754749915344e-02
434 3.73805320953993e-01 -7.38307031792570e-03 -5.78753445675860e-02
435 3.73882817710186e-01 -7.39657328310574e-03 -5.78753193322615e-02
436 3.73960454467547e-01 -7.40924630106925e-03 -5.78753999337892e-02
437 3.74038222110782e-01 -7.42108846080289e-03 -5.78755869705554e-02
438 3.74116111484246e-01 -7.43209923957057e-03 -5.78758809905196e-02
439 3.74194113405813e-01 -7.44227850265161e-03 -5.78762824907610e-02
440 3.74272218680739e-01 -7.45162650209167e-03 -5.78767919171555e-02
441 3.74350418115446e-01 -7.46014387447803e-03 -5.78774096641844e-02
442 3.74428702608454e-01 -7.46783080729334e-03 -5.78781361765138e-02
443 3.74507063541603e-01 -7.47468234529232e-03 -5.78789722802403e-02
444 3.74585491469557e-01 -7.48070287360382e-03 -5.78799171952112e-02
445 3.74663976994377e-01 -7.48589850913523e-03 -5.78809698931892e-02
446 3.74742510973360e-01 -7.49027466963053e-03 -5.78821294421420e-02
447 3.74821084483694e-01 -7.49383608580720e-03 -5.78833950038321e-02
448 3.74899688788626e-01 -7.49658681195922e-03 -5.78847658316395e-02
449 3.74978315304910e-01 -7.49853023503237e-03 -5.78862412686104e-02
450 3.75056955571312e-01 -7.49966908217862e-03 -5.78878207457273e-02
451 3.75135601217957e-01 -7.50000542679631e-03 -5.78895037803921e-02
452 3.75214243936307e-01 -7.49954069306205e-03 -5.78912899751196e-02
453 3.75292875449583e-01 -7.49827565895875e-03 -5.78931790164340e-02
454 3.75371487483421e-01 -7.49621045780281e-03 -5.78951706739647e-02
455 3.75450071736573e-01 -7.49334457827109e-03 -5.78972647997356e-02
456 3.75528619851463e-01 -7.48967686292648e-03 -5.78994613276455e-02
457 3.75607123384402e-01 -7.48520550523867e-03 -5.79017602731332e-02
458 3.75685573775256e-01 -7.47992804509468e-03 -5.79041617330250e-02
459 3.75763962316377e-01 -7.47384136279200e-03 -5.79066658855606e-02
460 3.75842280120572e-01 -7.46694167150557e-03 -5.79092729905925e-02
461 3.75920518087907e-01 -7.45922450821924e-03 -5.79119833899570e-02
462 3.75998666928266e-01 -7.45068520590877e-03 -5.79147974392169e-02
463 3.76076717768029e-01 -7.44132377650249e-03 -5.79177146098853e-02
464 3.76154661606134e-01 -7.43113946142387e-03 -5.79207340999527e-02
465 3.76232489321626e-01 -7.42013105425147e-03 -5.79238551353463e-02
466 3.76310191776392e-01 -7.40829772253123e-03 -5.79270768907191e-02
467 3.76387759828556e-01 -7.39563901172710e-03 -5.79303984900571e-02
468 3.76465184346041e-01 -7.38215484825061e-03 -5.79338190074217e-02
469 3.76542456220248e-01 -7.36784554154657e-03 -5.79373374678255e-02
470 3.76619566379786e-01 -7.35271178521718e-03 -5.79409528482388e-02
471 3.76696505804199e-01 -7.33675465717311e-03 -5.79446640787245e-02
472 3.76773265537623e-01 -7.31997561880549e-03 -5.79484700436969e-02
473 3.76849836702326e-01 -7.30237651317904e-03 -5.79523695832998e-02
474 3.76926210512054e-01 -7.28395956225250e-03 -5.79563614948981e-02
475 3.77002378285138e-01 -7.26472736313847e-03 -5.79604445346780e-02
476 3.77078331457301e-01 -7.24468288342070e-03 -5.79646174193469e-02
477 3.77154061594107e-01 -7.22382945555246e-03 -5.79688788279275e-02
478 3.77229560403005e-01 -7.20217077036522e-03 -5.79732274036371e-02
479 3.77304819744915e-01 -7.17971086972198e-03 -5.79776617558438e-02
480 3.77379831645309e-01 -7.15645413835432e-03 -5.79821804620913e-02
481 3.77454588304747e-01 -7.13240529492684e-03 -5.79867820701826e-02
482 3.77529081687610e-01 -7.10756812526524e-03 -5.79914650648403e-02
483 3.77603303228478e-01 -7.08194463549737e-03 -5.79962273920514e-02
484 3.77677246730246e-01 -7.05554347824455e-03 -5.80010666557260e-02
485 3.77750906173696e-01 -7.02837323826288e-03 -5.80059805417465e-02
486 3.77824275462681e-01 -7.00044176962872e-03 -5.80109668229107e-02
487 3.77897348397331e-01 -6.97175621924793e-03 -5.80160233530932e-02
488 3.77970118647797e-01 -6.94232304835722e-03 -5.80211480616801e-02
489 3.78042579728367e-01 -6.91214805211646e-03 -5.80263389482501e-02
490 3.78114724971717e-01 -6.88123637738627e-03 -5.80315940774764e-02
491 3.78186547503131e-01 -6.84959253878019e-03 -5.80369115742246e-02
492 3.78258040214489e-01 -6.81722043307691e-03 -5.80422896188211e-02
493 3.78329195737839e-01 -6.78412335207347e-03 -5.80477264424696e-02
494 3.78400006418377e-01 -6.75030399395754e-03 -5.80532203227904e-02
495 3.78470464286638e-01 -6.71576447327389e-03 -5.80587695794600e-02
496 3.78540561029726e-01 -6.68050632955803e-03 -5.80643725699284e-02
497 3.78610287961376e-01 -6.64453053470913e-03 -5.80700276851881e-02
498 3.78679635990656e-01 -6.60783749917401e-03 -5.80757333455739e-02
499 3.78748595589106e-01 -6.57042707701476e-03 -5.80814879965663e-02
500 3.78817156756088e-01 -6.53229856993527e-03 -5.80872901045751e-02
501 3.78885308982131e-01 -6.49345073034502e-03 -5.80931381526760e-02
502 3.78953042111651e-01 -6.45388329112747e-03 -5.80990306074097e-02
503 3.79020349716520e-01 -6.41360249184039e-03 -5.81049655675235e-02
504 3.79087223624946e-01 -6.37261156317387e-03 -5.81109408575772e-02
505 3.79153655459686e-01 -6.33091348229694e-03 -5.81169542683994e-02
506 3.79219636995312e-01 -6.28851156587106e-03 -5.81230035639201e-02
507 3.79285160170981e-01 -6.24540946705292e-03 -5.81290864837463e-02
508 3.79350217102907e-01 -6.20161117163314e-03 -5.81352007458165e-02
509 3.79414800096485e-01 -6.15712099332115e-03 -5.81413440491253e-02
510 3.79478901658001e-01 -6.11194356819118e-03 -5.81475140765063e-02
511 3.79542514505882e-01 -6.06608384830999e-03 -5.81537084974633e-02
512 3.79605631581444e-01 -6.01954709457148e-03 -5.81599249710383e-02
513 3.79668246059078e-01 -5.97233886876853e-03 -5.81661611487045e-02
514 3.79730351355840e-01 -5.92446502493660e-03 -5.81724146772734e-02
515 3.79791941140408e-01 -5.87593170000820e-03 -5.81786832018035e-02
516 3.79853009341358e-01 -5.82674530382088e-03 -5.81849643684999e-02
517 3.79913550154750e-01 -5.77691250852527e-03 -5.81912558275919e-02
518 3.79973558050972e-01 -5.72644023744245e-03 -5.81975552361795e-02
519 3.80033027780842e-01 -5.67533565342278e-03 -5.82038602610358e-02
520 3.80091954380934e-01 -5.62360614676038e-03 -5.82101685813553e-02
521 3.80150333178134e-01 -5.57125932271919e-03 -5.82164778914396e-02
522 3.80208159812414e-01 -5.51830298139683e-03 -5.82227856676577e-02
523 3.80265430257430e-01 -5.46474509789582e-03 -5.82290889562965e-02
524 3.80322140754727e-01 -5.41059383426838e-03 -5.82353852111011e-02
525 3.80378287843853e-01 -5.35585751446964e-03 -5.82416719322391e-02
526 3.80433868364398e-01 -5.30054461032674e-03 -5.82479466503890e-02
527 3.80488878669960e-01 -5.24466299315086e-03 -5.82542072387275e-02
528 3.80543313877112e-01 -5.18821918831461e-03 -5.82604513922320e-02
529 3.80597174469897e-01 -5.13122462753811e-03 -5.82666757450575e-02
530 3.80650467107733e-01 -5.07369615450251e-03 -5.82728772078889e-02
531 3.80703204215780e-01 -5.01565523769833e-03 -5.82790530807727e-02
532 3.80755400011349e-01 -4.95712407366703e-03 -5.82852009065601e-02
533 3.80807050384077e-01 -4.89810788925478e-03 -5.82913182534561e-02
534 3.80858145145814e-01 -4.83860672284854e-03 -5.82974033636143e-02
535 3.80908674249137e-01 -4.77862101895713e-03 -5.83034544940675e-02
536 3.80958627622700e-01 -4.71815147387041e-03 -5.83094698751070e-02
537 3.81007995182744e-01 -4.65719904322078e-03 -5.83154477114250e-02
538 3.81056766845182e-01 -4.59576494923696e-03 -5.83213861833701e-02
539 3.81104932538254e-01 -4.53385068764356e-03 -5.83272834483161e-02
540 3.81152482215720e-01 -4.47145803415918e-03 -5.83331376421461e-02
541 3.81199405870584e-01 -4.40858905054502e-03 -5.83389468808507e-02
542 3.81245693545747e-01 -4.34524608854439e-03 -5.83447092729701e-02
543 3.81291335338793e-01 -4.28143179048535e-03 -5.83504229499662e-02
544 3.81336321462073e-01 -4.21714911365957e-03 -5.83560859304948e-02
545 3.81380642231697e-01 -4.15240132158607e-03 -5.83616962029396e-02
546 3.81424288077711e-01 -4.08719198453953e-03 -5.83672517444472e-02
547 3.81467249560111e-01 -4.02152498190061e-03 -5.83727505232232e-02
548 3.81509517385078e-01 -3.95540450374380e-03 -5.83781905009301e-02
549 3.81551082421400e-01 -3.88883505162563e-03 -5.83835696351779e-02
550 3.81591935716987e-01 -3.82182143853879e-03 -5.83888858821025e-02
551 3.81632068515443e-01 -3.75436878800235e-03 -5.83941371990235e-02
552 3.81671472272597e-01 -3.68648253226187e-03 -5.83993215471733e-02
553 3.81710138672938e-01 -3.61816840957865e-03 -5.84044368944875e-02
554 3.81748059645879e-01 -3.54943246059204e-03 -5.84094812184471e-02
555 3.81785227381752e-01 -3.48028102374485e-03 -5.84144525089615e-02
556 3.81821634347490e-01 -3.41072072976728e-03 -5.84193487712807e-02
557 3.81857273301882e-01 -3.34075849522136e-03 -5.84241680289254e-02
558 3.81892137310352e-01 -3.27040151511415e-03 -5.84289083266212e-02
559 3.81926219759159e-01 -3.19965725459432e-03 -5.84335677332257e-02
560 3.81959514368968e-01 -3.12853343975355e-03 -5.84381443446339e-02
561 3.81992015207695e-01 -3.05703804756052e-03 -5.84426362866499e-02
562 3.82023716702720e-01 -2.98517929456954e-03 -5.84470417103248e-02
563 3.82054613664283e-01 -2.91296562738143e-03 -5.84513587431901e-02
564 3.82084701293320e-01 -2.84040571074126e-03 -5.84555855230959e-02
565 3.82113975178778e-01 -2.76750841078338e-03 -5.84597202281651e-02
566 3.82142431305553e-01 -2.69428278125964e-03 -5.84637610795255e-02
567 3.82170066061642e-01 -2.62073804931464e-03 -5.84677063438032e-02
568 3.82196876244211e-01 -2.54688360075999e-03 -5.84715543354963e-02
569 3.82222859064548e-01 -2.47272896491631e-03 -5.84753034192174e-02
570 3.82248012151874e-01 -2.39828379909447e-03 -5.84789520117965e-02
571 3.82272333556005e-01 -2.32355787278978e-03 -5.84824985842336e-02
572 3.82295821748845e-01 -2.24856105166435e-03 -5.84859416634956e-02
573 3.82318475624729e-01 -2.17330328139351e-03 -5.84892798341487e-02
574 3.82340294499610e-01 -2.09779457145222e-03 -5.84925117398220e-02
575 3.82361278109108e-01 -2.02204497891695e-03 -5.84956360844978e-02
576 3.82381426605448e-01 -1.94606459235676e-03 -5.84986516336243e-02
577 3.82400740553316e-01 -1.86986351588584e-03 -5.85015572150505e-02
578 3.82419220924663e-01 -1.79345185344672e-03 -5.85043517197813e-02
579 3.82436869092512e-01 -1.71683969339043e-03 -5.85070341025530e-02
580 3.82453686823797e-01 -1.64003709341612e-03 -5.85096033822315e-02
581 3.82469676271684e-01 -1.56305406592326e-03 -5.85120586393731e-02
582 3.82484839978883e-01 -1.48590056354491e-03 -5.85143989273274e-02
583 3.82499180853109e-01 -1.40858646535776e-03 -5.85166233623311e-02
584 3.82512702152295e-01 -1.33112156399330e-03 -5.85187311543137e-02
585 3.82525407477872e-01 -1.25351555323411e-03 -5.85207215773734e-02
586 3.82537300763154e-01 -1.17577801627532e-03 -5.85225939692544e-02
587 3.82548386261209e-01 -1.09791841464610e-03 -5.85243477306815e-02
588 3.82558668532274e-01 -1.01994607781342e-03 -5.85259823245597e-02
589 3.82568152430800e-01 -9.41870193484796e-04 -5.85274972750467e-02
590 3.82576843092171e-01 -8.63699798622102e-04 -5.85288921665077e-02
591 3.82584745919193e-01 -7.85443771172374e-04 -5.85301666422689e-02
592 3.82591866569233e-01 -7.07110822430908e-04 -5.85313203919458e-02
593 3.82598210940600e-01 -6.28709490120701e-04 -5.85323531392707e-02
594 3.82603785156533e-01 -5.50248132454182e-04 -5.85332646608198e-02
595 3.82608595551103e-01 -4.71734922786953e-04 -5.85340547871703e-02
596 3.82612648655412e-01 -3.93177844936655e-04 -5.85347234013581e-02
597 3.82615951183970e-01 -3.14584689158119e-04 -5.85352704351467e-02
598 3.82618510021109e-01 -2.35963048769153e-04 -5.85356958642945e-02
599 3.82620327410643e-01 -1.57320214166381e-04 -5.85359983733519e-02
600 3.82621416350351e-01 -7.86634955949213e-05 -5.85361704106647e-02
1 102 1 3 
2 102 3 4 
3 102 4 5 
4 102 5 6 
5 102 6 7 
6 102 7 8 
7 102 8 9 
8 102 9 10 
9 102 10 11 
10 102 11 12 
11 102 12 13 
12 102 13 14 
13 102 14 15 
14 102 15 16 
15 102 16 17 
16 102 17 18 
17 102 18 19 
18 102 19 20 
19 102 20 21 
20 102 21 22 
21 102 22 23 
22 102 23 24 
23 102 24 25 
24 102 25 26 
25 102 26 27 
26 102 27 28 
27 102 28 29 
28 102 29 30 
29 102 30 31 
30 102 31 32 
31 102 32 33 
32 102 33 34 
33 102 34 35 
34 102 35 36 
35 102 36 37 
36 102 37 38 
37 102 38 39 
38 102 39 40 
39 102 40 41 
40 102 41 42 
41 102 42 43 
42 102 43 44 
43 102 44 45 
44 102 45 46 
45 102 46 47 
46 102 47 48 
47 102 48 49 
48 102 49 50 
49 102 50 51 
50 102 51 52 
51 102 52 53 
52 102 53 54 
53 102 54 55 
54 102 55 56 
55 102 56 57 
56 102 57 58 
57 102 58 59 
58 102 59 60 
59 102 60 61 
60 102 61 62 
61 102 62 63 
62 102 63 64 
63 102 64 65 
64 102 65 66 
65 102 66 67 
66 102 67 68 
67 102 68 69 
68 102 69 70 
69 102 70 71 
70 102 71 72 
71 102 72 73 
72 102 73 74 
73 102 74 75 
74 102 75 76 
75 102 76 77 
76 102 77 78 
77 102 78 79 
78 102 79 80 
79 102 80 81 
80 102 81 82 
81 102 82 83 
82 102 83 84 
83 102 84 85 
84 102 85 86 
85 102 86 87 
86 102 87 88 
87 102 88 89 
88 102 89 90 
89 102 90 91 
90 102 91 92 
91 102 92 93 
92 102 93 94 
93 102 94 95 
94 102 95 96 
95 102 96 97 
96 102 97 98 
97 102 98 99 
98 102 99 100 
99 102 100 101 
100 102 101 102 
101 102 102 103 
102 102 103 104 
103 102 104 105 
104 102 105 106 
105 102 106 107 
106 102 107 108 
107 102 108 109 
108 102 109 110 
109 102 110 111 
110 102 111 112 
111 102 112 113 
112 102 113 114 
113 102 114 115 
114 102 115 116 
115 102 116 117 
116 102 117 118 
117 102 118 119 
118 102 119 120 
119 102 120 121 
120 102 121 122 
121 102 122 123 
122 102 123 124 
123 102 124 125 
124 102 125 126 
125 102 126 127 
126 102 127 128 
127 102 128 129 
128 102 129 130 
129 102 130 131 
130 102 131 132 
131 102 132 133 
132 102 133 134 
133 102 134 135 
134 102 135 136 
135 102 136 137 
136 102 137 138 
137 102 138 139 
138 102 139 140 
139 102 140 141 
140 102 141 142 
141 102 142 143 
142 102 143 144 
143 102 144 145 
144 102 145 146 
145 102 146 147 
146 102 147 148 
147 102 148 149 
148 102 149 150 
149 102 150 151 
150 102 151 152 
151 102 152 153 
152 102 153 154 
153 102 154 155 
154 102 155 156 
155 102 156 157 
156 102 157 158 
157 102 158 159 
158 102 159 160 
159 102 160 161 
160 102 161 162 
161 102 162 163 
162 102 163 164 
163 102 164 165 
164 102 165 166 
165 102 166 167 
166 102 167 168 
167 102 168 169 
168 102 169 170 
169 102 170 171 
170 102 171 172 
171 102 172 173 
172 102 173 174 
173 102 174 175 
174 102 175 176 
175 102 176 177 
176 102 177 178 
177 102 178 179 
178 102 179 180 
179 102 180 181 
180 102 181 182 
181 102 182 183 
182 102 183 184 
183 102 184 185 
184 102 185 186 
185 102 186 187 
186 102 187 188 
187 102 188 189 
188 102 189 190 
189 102 190 191 
190 102 191 192 
191 102 192 193 
192 102 193 194 
193 102 194 195 
194 102 195 196 
195 102 196 197 
196 102 197 198 
197 102 198 199 
198 102 199 200 
199 102 200 201 
200 102 201 202 
201 102 202 203 
202 102 203 204 
203 102 204 205 
204 102 205 206 
205 102 206 207 
206 102 207 208 
207 102 208 209 
208 102 209 210 
209 102 210 211 
210 102 211 212 
211 102 212 213 
212 102 213 214 
213 102 214 215 
214 102 215 216 
215 102 216 217 
216 102 217 218 
217 102 218 219 
218 102 219 220 
219 102 220 221 
220 102 221 222 
221 102 222 223 
222 102 223 224 
223 102 224 225 
224 102 225 226 
225 102 226 227 
226 102 227 228 
227 102 228 229 
228 102 229 230 
229 102 230 231 
230 102 231 232 
231 102 232 233 
232 102 233 234 
233 102 234 235 
234 102 235 236 
235 102 236 237 
236 102 237 238 
237 102 238 239 
238 102 239 240 
239 102 240 241 
240 102 241 242 
241 102 242 243 
242 102 243 244 
243 102 244 245 
244 102 245 246 
245 102 246 247 
246 102 247 248 
247 102 248 249 
248 102 249 250 
249 102 250 251 
250 102 251 252 
251 102 252 253 
252 102 253 254 
253 102 254 255 
254 102 255 256 
255 102 256 257 
256 102 257 258 
257 102 258 259 
258 102 259 260 
259 102 260 261 
260 102 261 262 
261 102 262 263 
262 102 263 264 
263 102 264 265 
264 102 265 266 
265 102 266 267 
266 102 267 268 
267 102 268 269 
268 102 269 270 
269 102 270 271 
270 102 271 272 
271 102 272 273 
272 102 273 274 
273 102 274 275 
274 102 275 276 
275 102 276 277 
276 102 277 278 
277 102 278 279 
278 102 279 280 
279 102 280 281 
280 102 281 282 
281 102 282 283 
282 102 283 284 
283 102 284 285 
284 102 285 286 
285 102 286 287 
286 102 287 288 
287 102 288 289 
288 102 289 290 
289 102 290 291 
290 102 291 292 
291 102 292 293 
292 102 293 294 
293 102 294 295 
294 102 295 296 
295 102 296 297 
296 102 297 298 
297 102 298 299 
298 102 299 300 
299 102 300 301 
300 102 301 2 
301 102 2 302 
302 102 302 303 
303 102 303 304 
304 102 304 305 
305 102 305 306 
306 102 306 307 
307 102 307 308 
308 102 308 309 
309 102 309 310 
310 102 310 311 
311 102 311 312 
312 102 312 313 
313 102 313 314 
314 102 314 315 
315 102 315 316 
316 102 316 317 
317 102 317 318 
318 102 318 319 
319 102 319 320 
320 102 320 321 
321 102 321 322 
322 102 322 323 
323 102 323 324 
324 102 324 325 
325 102 325 326 
326 102 326 327 
327 102 327 328 
328 102 328 329 
329 102 329 330 
330 102 330 331 
331 102 331 332 
332 102 332 333 
333 102 333 334 
334 102 334 335 
335 102 335 336 
336 102 336 337 
337 102 337 338 
338 102 338 339 
339 102 339 340 
340 102 340 341 
341 102 341 342 
342 102 342 343 
343 102 343 344 
344 102 344 345 
345 102 345 346 
346 102 346 347 
347 102 347 348 
348 102 348 349 
349 102 349 350 
350 102 350 351 
351 102 351 352 
352 102 352 353 
353 102 353 354 
354 102 354 355 
355 102 355 356 
356 102 356 357 
357 102 357 358 
358 102 358 359 
359 102 359 360 
360 102 360 361 
361 102 361 362 
362 102 362 363 
363 102 363 364 
364 102 364 365 
365 102 365 366 
366 102 366 367 
367 102 367 368 
368 102 368 369 
369 102 369 370 
370 102 370 371 
371 102 371 372 
372 102 372 373 
373 102 373 374 
374 102 374 375 
375 102 375 376 
376 102 376 377 
377 102 377 378 
378 102 378 379 
379 102 379 380 
380 102 380 381 
381 102 381 382 
382 102 382 383 
383 102 383 384 
384 102 384 385 
385 102 385 386 
386 102 386 387 
387 102 387 388 
388 102 388 389 
389 102 389 390 
390 102 390 391 
391 102 391 392 
392 102 392 393 
393 102 393 394 
394 102 394 395 
395 102 395 396 
396 102 396 397 
397 102 397 398 
398 102 398 399 
399 102 399 400 
400 102 400 401 
401 102 401 402 
402 102 402 403 
403 102 403 404 
404 102 404 405 
405 102 405 406 
406 102 406 407 
407 102 407 408 
408 102 408 409 
409 102 409 410 
410 102 410 411 
411 102 411 412 
412 102 412 413 
413 102 413 414 
414 102 414 415 
415 102 415 416 
416 102 416 417 
417 102 417 418 
418 102 418 419 
419 102 419 420 
420 102 420 421 
421 102 421 422 
422 102 422 423 
423 102 423 424 
424 102 424 425 
425 102 425 426 
426 102 426 427 
427 102 427 428 
428 102 428 429 
429 102 429 430 
430 102 430 431 
431 102 431 432 
432 102 432 433 
433 102 433 434 
434 102 434 435 
435 102 435 436 
436 102 436 437 
437 102 437 438 
438 102 438 439 
439 102 439 440 
440 102 440 441 
441 102 441 442 
442 102 442 443 
443 102 443 444 
444 102 444 445 
445 102 445 446 
446 102 446 447 
447 102 447 448 
448 102 448 449 
449 102 449 450 
450 102 450 451 
451 102 451 452 
452 102 452 453 
453 102 453 454 
454 102 454 455 
455 102 455 456 
456 102 456 457 
457 102 457 458 
458 102 458 459 
459 102 459 460 
460 102 460 461 
461 102 461 462 
462 102 462 463 
463 102 463 464 
464 102 464 465 
465 102 465 466 
466 102 466 467 
467 102 467 468 
468 102 468 469 
469 102 469 470 
470 102 470 471 
471 102 471 472 
472 102 472 473 
473 102 473 474 
474 102 474 475 
475 102 475 476 
476 102 476 477 
477 102 477 478 
478 102 478 479 
479 102 479 480 
480 102 480 481 
481 102 481 482 
482 102 482 483 
483 102 483 484 
484 102 484 485 
485 102 485 486 
486 102 486 487 
487 102 487 488 
488 102 488 489 
489 102 489 490 
490 102 490 491 
491 102 491 492 
492 102 492 493 
493 102 493 494 
494 102 494 495 
495 102 495 496 
496 102 496 497 
497 102 497 498 
498 102 498 499 
499 102 499 500 
500 102 500 501 
501 102 501 502 
502 102 502 503 
503 102 503 504 
504 102 504 505 
505 102 505 506 
506 102 506 507 
507 102 507 508 
508 102 508 509 
509 102 509 510 
510 102 510 511 
511 102 511 512 
512 102 512 513 
513 102 513 514 
514 102 514 515 
515 102 515 516 
516 102 516 517 
517 102 517 518 
518 102 518 519 
519 102 519 520 
520 102 520 521 
521 102 521 522 
522 102 522 523 
523 102 523 524 
524 102 524 525 
525 102 525 526 
526 102 526 527 
527 102 527 528 
528 102 528 529 
529 102 529 530 
530 102 530 531 
531 102 531 532 
532 102 532 533 
533 102 533 534 
534 102 534 535 
535 102 535 536 
536 102 536 537 
537 102 537 538 
538 102 538 539 
539 102 539 540 
540 102 540 541 
541 102 541 542 
542 102 542 543 
543 102 543 544 
544 102 544 545 
545 102 545 546 
546 102 546 547 
547 102 547 548 
548 102 548 549 
549 102 549 550 
550 102 550 551 
551 102 551 552 
552 102 552 553 
553 102 553 554 
554 102 554 555 
555 102 555 556 
556 102 556 557 
557 102 557 558 
558 102 558 559 
559 102 559 560 
560 102 560 561 
561 102 561 562 
562 102 562 563 
563 102 563 564 
564 102 564 565 
565 102 565 566 
566 102 566 567 
567 102 567 568 
568 102 568 569 
569 102 569 570 
570 102 570 571 
571 102 571 572 
572 102 572 573 
573 102 573 574 
574 102 574 575 
575 102 575 576 
576 102 576 577 
577 102 577 578 
578 102 578 579 
579 102 579 580 
580 102 580 581 
581 102 581 582 
582 102 582 583 
583 102 583 584 
584 102 584 585 
585 102 585 586 
586 102 586 587 
587 102 587 588 
588 102 588 589 
589 102 589 590 
590 102 590 591 
591 102 591 592 
592 102 592 593 
593 102 593 594 
594 102 594 595 
595 102 595 596 
596 102 596 597 
597 102 597 598 
598 102 598 599 
599 102 599 600 
600 102 600 1 
